Time(s),mV
0.0,1.38
0.001,1.38
0.002,1.38
0.003,1.38
0.004,1.38
0.005,1.38
0.006,1.38
0.007,1.38
0.008,1.38
0.009,1.38
0.01,1.38
0.011,1.38
0.012,1.38
0.013,1.38
0.014,1.37
0.015,1.37
0.016,1.37
0.017,1.37
0.018,1.37
0.019,1.37
0.02,1.37
0.021,1.37
0.022,1.37
0.023,1.37
0.024,1.37
0.025,1.37
0.026,1.37
0.027,1.37
0.028,1.37
0.029,1.37
0.03,1.37
0.031,1.37
0.032,1.37
0.033,1.37
0.034,1.37
0.035,1.37
0.036,1.37
0.037,1.37
0.038,1.37
0.039,1.37
0.04,1.37
0.041,1.37
0.042,1.37
0.043,1.37
0.044,1.37
0.045,1.37
0.046,1.37
0.047,1.37
0.048,1.37
0.049,1.37
0.05,1.37
0.051,1.37
0.052,1.37
0.053,1.37
0.054,1.37
0.055,1.37
0.056,1.37
0.057,1.37
0.058,1.37
0.059,1.37
0.06,1.37
0.061,1.36
0.062,1.36
0.063,1.36
0.064,1.36
0.065,1.36
0.066,1.36
0.067,1.36
0.068,1.36
0.069,1.36
0.07,1.36
0.071,1.36
0.072,1.36
0.073,1.36
0.074,1.36
0.075,1.36
0.076,1.36
0.077,1.36
0.078,1.36
0.079,1.36
0.08,1.36
0.081,1.36
0.082,1.36
0.083,1.36
0.084,1.36
0.085,1.36
0.086,1.36
0.087,1.37
0.088,1.37
0.089,1.37
0.09,1.37
0.091,1.37
0.092,1.37
0.093,1.37
0.094,1.37
0.095,1.37
0.096,1.37
0.097,1.37
0.098,1.37
0.099,1.37
0.1,1.37
0.101,1.37
0.102,1.36
0.103,1.37
0.104,1.37
0.105,1.36
0.106,1.37
0.107,1.37
0.108,1.37
0.109,1.37
0.11,1.37
0.111,1.37
0.112,1.37
0.113,1.37
0.114,1.37
0.115,1.37
0.116,1.37
0.117,1.37
0.118,1.37
0.119,1.37
0.12,1.37
0.121,1.37
0.122,1.37
0.123,1.37
0.124,1.37
0.125,1.37
0.126,1.37
0.127,1.37
0.128,1.37
0.129,1.37
0.13,1.37
0.131,1.37
0.132,1.37
0.133,1.37
0.134,1.37
0.135,1.37
0.136,1.37
0.137,1.37
0.138,1.37
0.139,1.37
0.14,1.37
0.141,1.37
0.142,1.37
0.143,1.37
0.144,1.37
0.145,1.37
0.146,1.37
0.147,1.37
0.148,1.37
0.149,1.37
0.15,1.37
0.151,1.37
0.152,1.37
0.153,1.37
0.154,1.37
0.155,1.37
0.156,1.37
0.157,1.37
0.158,1.37
0.159,1.37
0.16,1.37
0.161,1.37
0.162,1.37
0.163,1.38
0.164,1.38
0.165,1.38
0.166,1.38
0.167,1.38
0.168,1.38
0.169,1.38
0.17,1.38
0.171,1.38
0.172,1.38
0.173,1.38
0.174,1.38
0.175,1.38
0.176,1.38
0.177,1.38
0.178,1.38
0.179,1.38
0.18,1.38
0.181,1.38
0.182,1.38
0.183,1.38
0.184,1.38
0.185,1.38
0.186,1.38
0.187,1.38
0.188,1.38
0.189,1.38
0.19,1.38
0.191,1.38
0.192,1.38
0.193,1.38
0.194,1.38
0.195,1.38
0.196,1.38
0.197,1.38
0.198,1.38
0.199,1.38
0.2,1.38
0.201,1.38
0.202,1.38
0.203,1.38
0.204,1.38
0.205,1.38
0.206,1.38
0.207,1.38
0.208,1.38
0.209,1.38
0.21,1.38
0.211,1.38
0.212,1.38
0.213,1.38
0.214,1.38
0.215,1.38
0.216,1.38
0.217,1.38
0.218,1.38
0.219,1.38
0.22,1.38
0.221,1.37
0.222,1.37
0.223,1.37
0.224,1.37
0.225,1.37
0.226,1.37
0.227,1.37
0.228,1.37
0.229,1.37
0.23,1.37
0.231,1.37
0.232,1.37
0.233,1.37
0.234,1.37
0.235,1.37
0.236,1.37
0.237,1.37
0.238,1.37
0.239,1.37
0.24,1.37
0.241,1.37
0.242,1.37
0.243,1.37
0.244,1.37
0.245,1.37
0.246,1.37
0.247,1.37
0.248,1.37
0.249,1.37
0.25,1.37
0.251,1.37
0.252,1.37
0.253,1.37
0.254,1.37
0.255,1.37
0.256,1.37
0.257,1.37
0.258,1.37
0.259,1.37
0.26,1.37
0.261,1.37
0.262,1.37
0.263,1.37
0.264,1.37
0.265,1.37
0.266,1.37
0.267,1.37
0.268,1.37
0.269,1.37
0.27,1.37
0.271,1.38
0.272,1.38
0.273,1.37
0.274,1.38
0.275,1.38
0.276,1.37
0.277,1.37
0.278,1.37
0.279,1.37
0.28,1.37
0.281,1.37
0.282,1.37
0.283,1.37
0.284,1.37
0.285,1.37
0.286,1.37
0.287,1.37
0.288,1.37
0.289,1.37
0.29,1.37
0.291,1.37
0.292,1.37
0.293,1.37
0.294,1.37
0.295,1.37
0.296,1.37
0.297,1.37
0.298,1.37
0.299,1.37
0.3,1.37
0.301,1.37
0.302,1.37
0.303,1.37
0.304,1.37
0.305,1.37
0.306,1.37
0.307,1.37
0.308,1.37
0.309,1.37
0.31,1.37
0.311,1.37
0.312,1.37
0.313,1.37
0.314,1.37
0.315,1.37
0.316,1.37
0.317,1.37
0.318,1.37
0.319,1.37
0.32,1.37
0.321,1.37
0.322,1.37
0.323,1.37
0.324,1.37
0.325,1.37
0.326,1.37
0.327,1.37
0.328,1.37
0.329,1.37
0.33,1.37
0.331,1.37
0.332,1.37
0.333,1.37
0.334,1.37
0.335,1.37
0.336,1.37
0.337,1.37
0.338,1.37
0.339,1.37
0.34,1.37
0.341,1.37
0.342,1.37
0.343,1.37
0.344,1.37
0.345,1.38
0.346,1.38
0.347,1.38
0.348,1.38
0.349,1.38
0.35,1.38
0.351,1.38
0.352,1.38
0.353,1.38
0.354,1.38
0.355,1.38
0.356,1.38
0.357,1.37
0.358,1.37
0.359,1.37
0.36,1.37
0.361,1.37
0.362,1.38
0.363,1.38
0.364,1.38
0.365,1.38
0.366,1.38
0.367,1.38
0.368,1.38
0.369,1.38
0.37,1.38
0.371,1.38
0.372,1.38
0.373,1.38
0.374,1.38
0.375,1.38
0.376,1.38
0.377,1.38
0.378,1.38
0.379,1.38
0.38,1.38
0.381,1.38
0.382,1.38
0.383,1.38
0.384,1.38
0.385,1.38
0.386,1.38
0.387,1.38
0.388,1.38
0.389,1.38
0.39,1.38
0.391,1.39
0.392,1.39
0.393,1.39
0.394,1.39
0.395,1.4
0.396,1.39
0.397,1.39
0.398,1.39
0.399,1.39
0.4,1.39
0.401,1.38
0.402,1.38
0.403,1.38
0.404,1.38
0.405,1.38
0.406,1.38
0.407,1.38
0.408,1.38
0.409,1.38
0.41,1.38
0.411,1.38
0.412,1.38
0.413,1.38
0.414,1.38
0.415,1.38
0.416,1.38
0.417,1.38
0.418,1.38
0.419,1.39
0.42,1.39
0.421,1.39
0.422,1.38
0.423,1.38
0.424,1.38
0.425,1.38
0.426,1.38
0.427,1.38
0.428,1.38
0.429,1.38
0.43,1.38
0.431,1.38
0.432,1.38
0.433,1.38
0.434,1.38
0.435,1.38
0.436,1.38
0.437,1.38
0.438,1.38
0.439,1.38
0.44,1.38
0.441,1.38
0.442,1.38
0.443,1.38
0.444,1.38
0.445,1.38
0.446,1.38
0.447,1.38
0.448,1.38
0.449,1.38
0.45,1.38
0.451,1.38
0.452,1.38
0.453,1.38
0.454,1.38
0.455,1.38
0.456,1.38
0.457,1.38
0.458,1.38
0.459,1.38
0.46,1.38
0.461,1.38
0.462,1.38
0.463,1.38
0.464,1.38
0.465,1.38
0.466,1.38
0.467,1.38
0.468,1.38
0.469,1.38
0.47,1.38
0.471,1.38
0.472,1.38
0.473,1.38
0.474,1.38
0.475,1.38
0.476,1.38
0.477,1.38
0.478,1.38
0.479,1.38
0.48,1.37
0.481,1.37
0.482,1.36
0.483,1.36
0.484,1.36
0.485,1.35
0.486,1.35
0.487,1.33
0.488,1.33
0.489,1.33
0.49,1.33
0.491,1.32
0.492,1.32
0.493,1.32
0.494,1.32
0.495,1.32
0.496,1.32
0.497,1.32
0.498,1.33
0.499,1.33
0.5,1.33
0.501,1.35
0.502,1.36
0.503,1.38
0.504,1.41
0.505,1.43
0.506,1.45
0.507,1.49
0.508,1.52
0.509,1.55
0.51,1.59
0.511,1.63
0.512,1.67
0.513,1.71
0.514,1.74
0.515,1.79
0.516,1.83
0.517,1.87
0.518,1.9
0.519,1.92
0.52,1.95
0.521,1.97
0.522,1.99
0.523,2.01
0.524,2.01
0.525,2.01
0.526,2.01
0.527,1.99
0.528,1.97
0.529,1.95
0.53,1.92
0.531,1.9
0.532,1.85
0.533,1.82
0.534,1.77
0.535,1.72
0.536,1.68
0.537,1.64
0.538,1.59
0.539,1.55
0.54,1.52
0.541,1.49
0.542,1.46
0.543,1.44
0.544,1.43
0.545,1.41
0.546,1.41
0.547,1.41
0.548,1.4
0.549,1.4
0.55,1.4
0.551,1.41
0.552,1.41
0.553,1.41
0.554,1.4
0.555,1.4
0.556,1.4
0.557,1.4
0.558,1.38
0.559,1.38
0.56,1.38
0.561,1.37
0.562,1.37
0.563,1.36
0.564,1.36
0.565,1.36
0.566,1.36
0.567,1.35
0.568,1.35
0.569,1.35
0.57,1.35
0.571,1.35
0.572,1.35
0.573,1.35
0.574,1.35
0.575,1.35
0.576,1.35
0.577,1.35
0.578,1.35
0.579,1.35
0.58,1.35
0.581,1.35
0.582,1.35
0.583,1.35
0.584,1.35
0.585,1.35
0.586,1.35
0.587,1.35
0.588,1.35
0.589,1.35
0.59,1.35
0.591,1.35
0.592,1.35
0.593,1.35
0.594,1.35
0.595,1.35
0.596,1.35
0.597,1.35
0.598,1.35
0.599,1.35
0.6,1.35
0.601,1.35
0.602,1.35
0.603,1.35
0.604,1.35
0.605,1.35
0.606,1.35
0.607,1.35
0.608,1.35
0.609,1.35
0.61,1.35
0.611,1.35
0.612,1.35
0.613,1.35
0.614,1.35
0.615,1.35
0.616,1.36
0.617,1.36
0.618,1.36
0.619,1.36
0.62,1.36
0.621,1.36
0.622,1.36
0.623,1.36
0.624,1.36
0.625,1.36
0.626,1.36
0.627,1.36
0.628,1.36
0.629,1.36
0.63,1.36
0.631,1.36
0.632,1.36
0.633,1.36
0.634,1.36
0.635,1.36
0.636,1.36
0.637,1.36
0.638,1.36
0.639,1.36
0.64,1.36
0.641,1.36
0.642,1.36
0.643,1.36
0.644,1.36
0.645,1.36
0.646,1.36
0.647,1.36
0.648,1.36
0.649,1.36
0.65,1.36
0.651,1.36
0.652,1.36
0.653,1.36
0.654,1.36
0.655,1.36
0.656,1.36
0.657,1.36
0.658,1.36
0.659,1.36
0.66,1.36
0.661,1.36
0.662,1.36
0.663,1.36
0.664,1.36
0.665,1.36
0.666,1.36
0.667,1.36
0.668,1.36
0.669,1.36
0.67,1.36
0.671,1.36
0.672,1.36
0.673,1.36
0.674,1.36
0.675,1.36
0.676,1.36
0.677,1.36
0.678,1.36
0.679,1.36
0.68,1.36
0.681,1.36
0.682,1.36
0.683,1.36
0.684,1.36
0.685,1.36
0.686,1.36
0.687,1.36
0.688,1.36
0.689,1.36
0.69,1.36
0.691,1.36
0.692,1.36
0.693,1.36
0.694,1.36
0.695,1.36
0.696,1.36
0.697,1.36
0.698,1.36
0.699,1.36
0.7,1.36
0.701,1.36
0.702,1.36
0.703,1.36
0.704,1.36
0.705,1.36
0.706,1.36
0.707,1.36
0.708,1.36
0.709,1.36
0.71,1.36
0.711,1.36
0.712,1.36
0.713,1.36
0.714,1.36
0.715,1.36
0.716,1.36
0.717,1.36
0.718,1.36
0.719,1.36
0.72,1.36
0.721,1.36
0.722,1.36
0.723,1.36
0.724,1.36
0.725,1.36
0.726,1.36
0.727,1.36
0.728,1.36
0.729,1.36
0.73,1.36
0.731,1.36
0.732,1.36
0.733,1.36
0.734,1.36
0.735,1.36
0.736,1.37
0.737,1.37
0.738,1.37
0.739,1.37
0.74,1.37
0.741,1.37
0.742,1.37
0.743,1.37
0.744,1.38
0.745,1.38
0.746,1.38
0.747,1.38
0.748,1.38
0.749,1.38
0.75,1.38
0.751,1.38
0.752,1.38
0.753,1.38
0.754,1.38
0.755,1.38
0.756,1.38
0.757,1.38
0.758,1.39
0.759,1.4
0.76,1.4
0.761,1.4
0.762,1.4
0.763,1.4
0.764,1.4
0.765,1.4
0.766,1.4
0.767,1.4
0.768,1.4
0.769,1.4
0.77,1.4
0.771,1.4
0.772,1.41
0.773,1.41
0.774,1.4
0.775,1.41
0.776,1.4
0.777,1.41
0.778,1.41
0.779,1.4
0.78,1.41
0.781,1.41
0.782,1.4
0.783,1.4
0.784,1.4
0.785,1.4
0.786,1.4
0.787,1.4
0.788,1.4
0.789,1.4
0.79,1.4
0.791,1.4
0.792,1.4
0.793,1.4
0.794,1.4
0.795,1.4
0.796,1.39
0.797,1.39
0.798,1.38
0.799,1.38
0.8,1.38
0.801,1.38
0.802,1.38
0.803,1.38
0.804,1.38
0.805,1.38
0.806,1.38
0.807,1.38
0.808,1.38
0.809,1.38
0.81,1.38
0.811,1.38
0.812,1.38
0.813,1.38
0.814,1.38
0.815,1.38
0.816,1.38
0.817,1.37
0.818,1.37
0.819,1.37
0.82,1.37
0.821,1.37
0.822,1.37
0.823,1.37
0.824,1.37
0.825,1.37
0.826,1.37
0.827,1.37
0.828,1.37
0.829,1.37
0.83,1.37
0.831,1.37
0.832,1.36
0.833,1.36
0.834,1.36
0.835,1.36
0.836,1.36
0.837,1.36
0.838,1.36
0.839,1.36
0.84,1.36
0.841,1.36
0.842,1.36
0.843,1.36
0.844,1.36
0.845,1.36
0.846,1.36
0.847,1.36
0.848,1.36
0.849,1.36
0.85,1.36
0.851,1.36
0.852,1.36
0.853,1.36
0.854,1.36
0.855,1.36
0.856,1.36
0.857,1.36
0.858,1.36
0.859,1.36
0.86,1.36
0.861,1.36
0.862,1.36
0.863,1.36
0.864,1.36
0.865,1.36
0.866,1.36
0.867,1.36
0.868,1.36
0.869,1.36
0.87,1.36
0.871,1.36
0.872,1.36
0.873,1.36
0.874,1.37
0.875,1.37
0.876,1.37
0.877,1.37
0.878,1.37
0.879,1.37
0.88,1.37
0.881,1.37
0.882,1.37
0.883,1.37
0.884,1.37
0.885,1.37
0.886,1.37
0.887,1.37
0.888,1.37
0.889,1.37
0.89,1.37
0.891,1.37
0.892,1.37
0.893,1.37
0.894,1.37
0.895,1.37
0.896,1.37
0.897,1.37
0.898,1.37
0.899,1.37
0.9,1.37
0.901,1.37
0.902,1.37
0.903,1.37
0.904,1.37
0.905,1.37
0.906,1.37
0.907,1.37
0.908,1.37
0.909,1.37
0.91,1.37
0.911,1.37
0.912,1.37
0.913,1.37
0.914,1.37
0.915,1.37
0.916,1.37
0.917,1.37
0.918,1.37
0.919,1.37
0.92,1.37
0.921,1.37
0.922,1.37
0.923,1.37
0.924,1.37
0.925,1.37
0.926,1.37
0.927,1.37
0.928,1.37
0.929,1.37
0.93,1.37
0.931,1.37
0.932,1.38
0.933,1.38
0.934,1.38
0.935,1.38
0.936,1.38
0.937,1.38
0.938,1.38
0.939,1.38
0.94,1.38
0.941,1.38
0.942,1.38
0.943,1.38
0.944,1.38
0.945,1.38
0.946,1.38
0.947,1.38
0.948,1.38
0.949,1.38
0.95,1.38
0.951,1.38
0.952,1.38
0.953,1.38
0.954,1.38
0.955,1.38
0.956,1.38
0.957,1.38
0.958,1.38
0.959,1.38
0.96,1.38
0.961,1.38
0.962,1.38
0.963,1.38
0.964,1.38
0.965,1.38
0.966,1.38
0.967,1.38
0.968,1.38
0.969,1.38
0.97,1.38
0.971,1.38
0.972,1.38
0.973,1.38
0.974,1.38
0.975,1.38
0.976,1.38
0.977,1.38
0.978,1.38
0.979,1.38
0.98,1.38
0.981,1.38
0.982,1.38
0.983,1.38
0.984,1.38
0.985,1.38
0.986,1.38
0.987,1.38
0.988,1.38
0.989,1.38
0.99,1.38
0.991,1.38
0.992,1.38
0.993,1.38
0.994,1.38
0.995,1.38
0.996,1.38
0.997,1.38
0.998,1.38
0.999,1.38
1.0,1.38
1.001,1.38
1.002,1.38
1.003,1.38
1.004,1.38
1.005,1.38
1.006,1.38
1.007,1.38
1.008,1.38
1.009,1.38
1.01,1.38
1.011,1.38
1.012,1.38
1.013,1.38
1.014,1.38
1.015,1.38
1.016,1.38
1.017,1.38
1.018,1.38
1.019,1.38
1.02,1.38
1.021,1.38
1.022,1.38
1.023,1.38
1.024,1.38
1.025,1.38
1.026,1.38
1.027,1.38
1.028,1.38
1.029,1.38
1.03,1.38
1.031,1.38
1.032,1.38
1.033,1.38
1.034,1.38
1.035,1.38
1.036,1.38
1.037,1.38
1.038,1.38
1.039,1.38
1.04,1.38
1.041,1.38
1.042,1.38
1.043,1.38
1.044,1.38
1.045,1.38
1.046,1.38
1.047,1.38
1.048,1.38
1.049,1.38
1.05,1.38
1.051,1.38
1.052,1.38
1.053,1.38
1.054,1.38
1.055,1.38
1.056,1.38
1.057,1.38
1.058,1.38
1.059,1.38
1.06,1.38
1.061,1.38
1.062,1.38
1.063,1.38
1.064,1.38
1.065,1.38
1.066,1.38
1.067,1.38
1.068,1.38
1.069,1.38
1.07,1.38
1.071,1.38
1.072,1.38
1.073,1.38
1.074,1.38
1.075,1.38
1.076,1.38
1.077,1.38
1.078,1.38
1.079,1.38
1.08,1.38
1.081,1.38
1.082,1.38
1.083,1.38
1.084,1.38
1.085,1.38
1.086,1.38
1.087,1.38
1.088,1.38
1.089,1.38
1.09,1.38
1.091,1.38
1.092,1.38
1.093,1.38
1.094,1.38
1.095,1.38
1.096,1.38
1.097,1.38
1.098,1.38
1.099,1.38
1.1,1.38
1.101,1.38
1.102,1.38
1.103,1.38
1.104,1.38
1.105,1.38
1.106,1.38
1.107,1.38
1.108,1.38
1.109,1.38
1.11,1.38
1.111,1.38
1.112,1.38
1.113,1.38
1.114,1.38
1.115,1.38
1.116,1.38
1.117,1.38
1.118,1.38
1.119,1.38
1.12,1.38
1.121,1.38
1.122,1.38
1.123,1.38
1.124,1.38
1.125,1.38
1.126,1.38
1.127,1.38
1.128,1.38
1.129,1.38
1.13,1.38
1.131,1.38
1.132,1.38
1.133,1.38
1.134,1.38
1.135,1.38
1.136,1.38
1.137,1.38
1.138,1.38
1.139,1.38
1.14,1.38
1.141,1.38
1.142,1.38
1.143,1.38
1.144,1.38
1.145,1.38
1.146,1.38
1.147,1.38
1.148,1.38
1.149,1.38
1.15,1.38
1.151,1.38
1.152,1.38
1.153,1.38
1.154,1.38
1.155,1.38
1.156,1.38
1.157,1.38
1.158,1.38
1.159,1.38
1.16,1.38
1.161,1.38
1.162,1.38
1.163,1.38
1.164,1.38
1.165,1.38
1.166,1.38
1.167,1.38
1.168,1.38
1.169,1.38
1.17,1.38
1.171,1.38
1.172,1.38
1.173,1.38
1.174,1.38
1.175,1.38
1.176,1.38
1.177,1.38
1.178,1.38
1.179,1.38
1.18,1.38
1.181,1.38
1.182,1.38
1.183,1.38
1.184,1.38
1.185,1.38
1.186,1.38
1.187,1.38
1.188,1.39
1.189,1.39
1.19,1.39
1.191,1.4
1.192,1.4
1.193,1.4
1.194,1.4
1.195,1.4
1.196,1.4
1.197,1.39
1.198,1.39
1.199,1.39
1.2,1.39
1.201,1.38
1.202,1.38
1.203,1.38
1.204,1.38
1.205,1.38
1.206,1.38
1.207,1.38
1.208,1.38
1.209,1.38
1.21,1.38
1.211,1.38
1.212,1.38
1.213,1.38
1.214,1.38
1.215,1.38
1.216,1.38
1.217,1.38
1.218,1.38
1.219,1.38
1.22,1.38
1.221,1.38
1.222,1.38
1.223,1.38
1.224,1.38
1.225,1.38
1.226,1.38
1.227,1.38
1.228,1.38
1.229,1.38
1.23,1.38
1.231,1.38
1.232,1.38
1.233,1.38
1.234,1.38
1.235,1.38
1.236,1.38
1.237,1.38
1.238,1.38
1.239,1.38
1.24,1.38
1.241,1.38
1.242,1.38
1.243,1.38
1.244,1.38
1.245,1.38
1.246,1.38
1.247,1.38
1.248,1.38
1.249,1.38
1.25,1.38
1.251,1.38
1.252,1.38
1.253,1.38
1.254,1.38
1.255,1.38
1.256,1.38
1.257,1.38
1.258,1.38
1.259,1.38
1.26,1.38
1.261,1.38
1.262,1.38
1.263,1.38
1.264,1.38
1.265,1.38
1.266,1.38
1.267,1.38
1.268,1.38
1.269,1.38
1.27,1.38
1.271,1.38
1.272,1.38
1.273,1.38
1.274,1.38
1.275,1.38
1.276,1.38
1.277,1.38
1.278,1.38
1.279,1.38
1.28,1.37
1.281,1.37
1.282,1.36
1.283,1.36
1.284,1.36
1.285,1.35
1.286,1.35
1.287,1.35
1.288,1.33
1.289,1.33
1.29,1.33
1.291,1.33
1.292,1.33
1.293,1.33
1.294,1.33
1.295,1.33
1.296,1.33
1.297,1.33
1.298,1.34
1.299,1.35
1.3,1.36
1.301,1.38
1.302,1.4
1.303,1.41
1.304,1.44
1.305,1.46
1.306,1.5
1.307,1.52
1.308,1.56
1.309,1.59
1.31,1.64
1.311,1.68
1.312,1.71
1.313,1.76
1.314,1.79
1.315,1.83
1.316,1.87
1.317,1.87
1.318,1.92
1.319,1.95
1.32,1.96
1.321,1.97
1.322,1.98
1.323,1.98
1.324,1.97
1.325,1.97
1.326,1.96
1.327,1.93
1.328,1.91
1.329,1.87
1.33,1.85
1.331,1.8
1.332,1.76
1.333,1.72
1.334,1.68
1.335,1.64
1.336,1.59
1.337,1.55
1.338,1.52
1.339,1.49
1.34,1.46
1.341,1.44
1.342,1.43
1.343,1.41
1.344,1.41
1.345,1.41
1.346,1.4
1.347,1.4
1.348,1.4
1.349,1.41
1.35,1.41
1.351,1.41
1.352,1.41
1.353,1.41
1.354,1.4
1.355,1.4
1.356,1.4
1.357,1.39
1.358,1.38
1.359,1.38
1.36,1.38
1.361,1.37
1.362,1.37
1.363,1.36
1.364,1.36
1.365,1.36
1.366,1.36
1.367,1.36
1.368,1.35
1.369,1.35
1.37,1.35
1.371,1.35
1.372,1.35
1.373,1.35
1.374,1.35
1.375,1.35
1.376,1.35
1.377,1.35
1.378,1.35
1.379,1.35
1.38,1.35
1.381,1.35
1.382,1.35
1.383,1.35
1.384,1.35
1.385,1.35
1.386,1.35
1.387,1.35
1.388,1.35
1.389,1.35
1.39,1.35
1.391,1.35
1.392,1.35
1.393,1.35
1.394,1.35
1.395,1.35
1.396,1.35
1.397,1.35
1.398,1.35
1.399,1.35
1.4,1.35
1.401,1.35
1.402,1.35
1.403,1.35
1.404,1.35
1.405,1.35
1.406,1.35
1.407,1.35
1.408,1.35
1.409,1.35
1.41,1.35
1.411,1.35
1.412,1.35
1.413,1.35
1.414,1.35
1.415,1.35
1.416,1.35
1.417,1.35
1.418,1.35
1.419,1.35
1.42,1.35
1.421,1.35
1.422,1.35
1.423,1.35
1.424,1.35
1.425,1.35
1.426,1.36
1.427,1.36
1.428,1.36
1.429,1.36
1.43,1.36
1.431,1.36
1.432,1.36
1.433,1.36
1.434,1.36
1.435,1.36
1.436,1.36
1.437,1.36
1.438,1.36
1.439,1.36
1.44,1.36
1.441,1.36
1.442,1.36
1.443,1.36
1.444,1.36
1.445,1.36
1.446,1.36
1.447,1.36
1.448,1.36
1.449,1.36
1.45,1.36
1.451,1.36
1.452,1.36
1.453,1.36
1.454,1.36
1.455,1.36
1.456,1.36
1.457,1.36
1.458,1.36
1.459,1.36
1.46,1.36
1.461,1.36
1.462,1.36
1.463,1.36
1.464,1.36
1.465,1.36
1.466,1.36
1.467,1.36
1.468,1.36
1.469,1.36
1.47,1.36
1.471,1.36
1.472,1.36
1.473,1.36
1.474,1.36
1.475,1.36
1.476,1.36
1.477,1.36
1.478,1.36
1.479,1.37
1.48,1.37
1.481,1.37
1.482,1.37
1.483,1.37
1.484,1.37
1.485,1.37
1.486,1.37
1.487,1.37
1.488,1.37
1.489,1.37
1.49,1.37
1.491,1.37
1.492,1.37
1.493,1.37
1.494,1.37
1.495,1.37
1.496,1.36
1.497,1.36
1.498,1.36
1.499,1.36
1.5,1.36
1.501,1.36
1.502,1.36
1.503,1.36
1.504,1.36
1.505,1.36
1.506,1.36
1.507,1.36
1.508,1.36
1.509,1.36
1.51,1.36
1.511,1.36
1.512,1.37
1.513,1.37
1.514,1.36
1.515,1.37
1.516,1.36
1.517,1.37
1.518,1.37
1.519,1.37
1.52,1.37
1.521,1.37
1.522,1.37
1.523,1.37
1.524,1.37
1.525,1.37
1.526,1.37
1.527,1.37
1.528,1.37
1.529,1.37
1.53,1.37
1.531,1.37
1.532,1.37
1.533,1.37
1.534,1.37
1.535,1.37
1.536,1.38
1.537,1.38
1.538,1.38
1.539,1.38
1.54,1.38
1.541,1.38
1.542,1.38
1.543,1.38
1.544,1.38
1.545,1.38
1.546,1.38
1.547,1.38
1.548,1.38
1.549,1.38
1.55,1.38
1.551,1.38
1.552,1.38
1.553,1.38
1.554,1.39
1.555,1.39
1.556,1.4
1.557,1.4
1.558,1.4
1.559,1.4
1.56,1.4
1.561,1.4
1.562,1.4
1.563,1.4
1.564,1.4
1.565,1.41
1.566,1.41
1.567,1.41
1.568,1.41
1.569,1.41
1.57,1.41
1.571,1.41
1.572,1.41
1.573,1.41
1.574,1.41
1.575,1.41
1.576,1.41
1.577,1.41
1.578,1.41
1.579,1.41
1.58,1.41
1.581,1.41
1.582,1.41
1.583,1.41
1.584,1.41
1.585,1.41
1.586,1.41
1.587,1.41
1.588,1.41
1.589,1.41
1.59,1.41
1.591,1.4
1.592,1.4
1.593,1.4
1.594,1.4
1.595,1.4
1.596,1.4
1.597,1.4
1.598,1.4
1.599,1.4
1.6,1.39
1.601,1.39
1.602,1.38
1.603,1.38
1.604,1.38
1.605,1.38
1.606,1.38
1.607,1.38
1.608,1.38
1.609,1.38
1.61,1.38
1.611,1.38
1.612,1.38
1.613,1.38
1.614,1.38
1.615,1.38
1.616,1.38
1.617,1.38
1.618,1.38
1.619,1.37
1.62,1.37
1.621,1.37
1.622,1.37
1.623,1.37
1.624,1.37
1.625,1.37
1.626,1.37
1.627,1.37
1.628,1.37
1.629,1.37
1.63,1.37
1.631,1.37
1.632,1.37
1.633,1.36
1.634,1.36
1.635,1.36
1.636,1.36
1.637,1.36
1.638,1.36
1.639,1.36
1.64,1.36
1.641,1.36
1.642,1.36
1.643,1.36
1.644,1.36
1.645,1.36
1.646,1.36
1.647,1.36
1.648,1.36
1.649,1.36
1.65,1.36
1.651,1.36
1.652,1.36
1.653,1.36
1.654,1.36
1.655,1.36
1.656,1.36
1.657,1.36
1.658,1.36
1.659,1.36
1.66,1.36
1.661,1.36
1.662,1.36
1.663,1.36
1.664,1.36
1.665,1.36
1.666,1.36
1.667,1.36
1.668,1.36
1.669,1.36
1.67,1.36
1.671,1.36
1.672,1.36
1.673,1.36
1.674,1.36
1.675,1.36
1.676,1.36
1.677,1.36
1.678,1.36
1.679,1.36
1.68,1.36
1.681,1.36
1.682,1.36
1.683,1.36
1.684,1.36
1.685,1.36
1.686,1.36
1.687,1.36
1.688,1.36
1.689,1.36
1.69,1.36
1.691,1.36
1.692,1.36
1.693,1.36
1.694,1.36
1.695,1.36
1.696,1.36
1.697,1.36
1.698,1.36
1.699,1.36
1.7,1.36
1.701,1.36
1.702,1.36
1.703,1.36
1.704,1.36
1.705,1.36
1.706,1.37
1.707,1.37
1.708,1.37
1.709,1.37
1.71,1.37
1.711,1.37
1.712,1.37
1.713,1.37
1.714,1.37
1.715,1.37
1.716,1.37
1.717,1.37
1.718,1.37
1.719,1.37
1.72,1.37
1.721,1.37
1.722,1.37
1.723,1.37
1.724,1.37
1.725,1.37
1.726,1.37
1.727,1.37
1.728,1.37
1.729,1.37
1.73,1.37
1.731,1.37
1.732,1.37
1.733,1.37
1.734,1.37
1.735,1.37
1.736,1.37
1.737,1.37
1.738,1.37
1.739,1.37
1.74,1.37
1.741,1.37
1.742,1.37
1.743,1.37
1.744,1.37
1.745,1.37
1.746,1.37
1.747,1.37
1.748,1.37
1.749,1.37
1.75,1.37
1.751,1.37
1.752,1.37
1.753,1.38
1.754,1.37
1.755,1.38
1.756,1.38
1.757,1.38
1.758,1.38
1.759,1.38
1.76,1.38
1.761,1.38
1.762,1.38
1.763,1.38
1.764,1.38
1.765,1.38
1.766,1.38
1.767,1.38
1.768,1.38
1.769,1.38
1.77,1.37
1.771,1.37
1.772,1.37
1.773,1.37
1.774,1.37
1.775,1.37
1.776,1.37
1.777,1.38
1.778,1.38
1.779,1.38
1.78,1.38
1.781,1.38
1.782,1.38
1.783,1.38
1.784,1.38
1.785,1.38
1.786,1.38
1.787,1.38
1.788,1.38
1.789,1.38
1.79,1.38
1.791,1.38
1.792,1.38
1.793,1.38
1.794,1.37
1.795,1.37
1.796,1.37
1.797,1.37
1.798,1.37
1.799,1.37
1.8,1.37
1.801,1.37
1.802,1.37
1.803,1.37
1.804,1.37
1.805,1.37
1.806,1.37
1.807,1.37
1.808,1.37
1.809,1.37
1.81,1.37
1.811,1.37
1.812,1.37
1.813,1.37
1.814,1.37
1.815,1.37
1.816,1.37
1.817,1.37
1.818,1.37
1.819,1.37
1.82,1.38
1.821,1.38
1.822,1.38
1.823,1.38
1.824,1.38
1.825,1.38
1.826,1.38
1.827,1.38
1.828,1.38
1.829,1.38
1.83,1.38
1.831,1.38
1.832,1.38
1.833,1.38
1.834,1.38
1.835,1.38
1.836,1.38
1.837,1.38
1.838,1.38
1.839,1.38
1.84,1.38
1.841,1.38
1.842,1.38
1.843,1.38
1.844,1.38
1.845,1.38
1.846,1.38
1.847,1.38
1.848,1.38
1.849,1.38
1.85,1.38
1.851,1.38
1.852,1.38
1.853,1.38
1.854,1.38
1.855,1.38
1.856,1.38
1.857,1.38
1.858,1.38
1.859,1.38
1.86,1.38
1.861,1.38
1.862,1.38
1.863,1.38
1.864,1.38
1.865,1.38
1.866,1.38
1.867,1.38
1.868,1.38
1.869,1.38
1.87,1.38
1.871,1.38
1.872,1.38
1.873,1.38
1.874,1.38
1.875,1.38
1.876,1.38
1.877,1.38
1.878,1.38
1.879,1.38
1.88,1.38
1.881,1.38
1.882,1.38
1.883,1.38
1.884,1.38
1.885,1.38
1.886,1.38
1.887,1.38
1.888,1.38
1.889,1.38
1.89,1.38
1.891,1.38
1.892,1.38
1.893,1.38
1.894,1.38
1.895,1.38
1.896,1.38
1.897,1.38
1.898,1.38
1.899,1.38
1.9,1.38
1.901,1.38
1.902,1.38
1.903,1.38
1.904,1.38
1.905,1.38
1.906,1.38
1.907,1.38
1.908,1.38
1.909,1.38
1.91,1.38
1.911,1.38
1.912,1.38
1.913,1.38
1.914,1.38
1.915,1.38
1.916,1.38
1.917,1.38
1.918,1.38
1.919,1.38
1.92,1.38
1.921,1.38
1.922,1.38
1.923,1.38
1.924,1.38
1.925,1.38
1.926,1.38
1.927,1.38
1.928,1.38
1.929,1.38
1.93,1.38
1.931,1.38
1.932,1.38
1.933,1.38
1.934,1.38
1.935,1.38
1.936,1.38
1.937,1.38
1.938,1.38
1.939,1.39
1.94,1.39
1.941,1.39
1.942,1.39
1.943,1.39
1.944,1.39
1.945,1.4
1.946,1.4
1.947,1.4
1.948,1.4
1.949,1.4
1.95,1.39
1.951,1.39
1.952,1.39
1.953,1.39
1.954,1.39
1.955,1.39
1.956,1.39
1.957,1.39
1.958,1.39
1.959,1.39
1.96,1.39
1.961,1.39
1.962,1.39
1.963,1.39
1.964,1.39
1.965,1.39
1.966,1.39
1.967,1.39
1.968,1.39
1.969,1.38
1.97,1.38
1.971,1.38
1.972,1.38
1.973,1.38
1.974,1.38
1.975,1.38
1.976,1.38
1.977,1.39
1.978,1.39
1.979,1.39
1.98,1.39
1.981,1.39
1.982,1.39
1.983,1.39
1.984,1.39
1.985,1.39
1.986,1.39
1.987,1.39
1.988,1.39
1.989,1.39
1.99,1.39
1.991,1.38
1.992,1.38
1.993,1.38
1.994,1.38
1.995,1.38
1.996,1.38
1.997,1.38
1.998,1.38
1.999,1.39
2.0,1.39
2.001,1.39
2.002,1.39
2.003,1.39
2.004,1.39
2.005,1.39
2.006,1.4
2.007,1.39
2.008,1.39
2.009,1.39
2.01,1.39
2.011,1.39
2.012,1.38
2.013,1.38
2.014,1.38
2.015,1.38
2.016,1.38
2.017,1.38
2.018,1.38
2.019,1.38
2.02,1.38
2.021,1.38
2.022,1.38
2.023,1.38
2.024,1.38
2.025,1.38
2.026,1.38
2.027,1.38
2.028,1.38
2.029,1.38
2.03,1.38
2.031,1.38
2.032,1.38
2.033,1.38
2.034,1.38
2.035,1.38
2.036,1.38
2.037,1.38
2.038,1.38
2.039,1.38
2.04,1.38
2.041,1.39
2.042,1.39
2.043,1.39
2.044,1.4
2.045,1.4
2.046,1.4
2.047,1.4
2.048,1.4
2.049,1.4
2.05,1.4
2.051,1.4
2.052,1.4
2.053,1.4
2.054,1.4
2.055,1.4
2.056,1.4
2.057,1.4
2.058,1.4
2.059,1.4
2.06,1.4
2.061,1.4
2.062,1.39
2.063,1.39
2.064,1.39
2.065,1.39
2.066,1.39
2.067,1.39
2.068,1.39
2.069,1.39
2.07,1.39
2.071,1.4
2.072,1.4
2.073,1.4
2.074,1.4
2.075,1.39
2.076,1.4
2.077,1.4
2.078,1.4
2.079,1.39
2.08,1.39
2.081,1.39
2.082,1.39
2.083,1.39
2.084,1.39
2.085,1.38
2.086,1.38
2.087,1.38
2.088,1.38
2.089,1.38
2.09,1.38
2.091,1.38
2.092,1.38
2.093,1.38
2.094,1.38
2.095,1.38
2.096,1.38
2.097,1.38
2.098,1.38
2.099,1.38
2.1,1.38
2.101,1.38
2.102,1.38
2.103,1.38
2.104,1.38
2.105,1.38
2.106,1.38
2.107,1.38
2.108,1.38
2.109,1.38
2.11,1.38
2.111,1.38
2.112,1.38
2.113,1.38
2.114,1.38
2.115,1.38
2.116,1.38
2.117,1.38
2.118,1.38
2.119,1.38
2.12,1.38
2.121,1.38
2.122,1.38
2.123,1.38
2.124,1.38
2.125,1.38
2.126,1.38
2.127,1.38
2.128,1.38
2.129,1.38
2.13,1.38
2.131,1.38
2.132,1.38
2.133,1.38
2.134,1.38
2.135,1.37
2.136,1.36
2.137,1.36
2.138,1.36
2.139,1.36
2.14,1.35
2.141,1.35
2.142,1.33
2.143,1.33
2.144,1.33
2.145,1.33
2.146,1.32
2.147,1.32
2.148,1.32
2.149,1.32
2.15,1.32
2.151,1.32
2.152,1.32
2.153,1.33
2.154,1.33
2.155,1.35
2.156,1.36
2.157,1.38
2.158,1.41
2.159,1.43
2.16,1.45
2.161,1.48
2.162,1.51
2.163,1.55
2.164,1.59
2.165,1.63
2.166,1.67
2.167,1.71
2.168,1.74
2.169,1.79
2.17,1.83
2.171,1.87
2.172,1.9
2.173,1.92
2.174,1.95
2.175,1.97
2.176,1.99
2.177,2.01
2.178,2.02
2.179,2.02
2.18,2.01
2.181,2.01
2.182,1.99
2.183,1.97
2.184,1.95
2.185,1.91
2.186,1.87
2.187,1.83
2.188,1.79
2.189,1.74
2.19,1.69
2.191,1.65
2.192,1.6
2.193,1.57
2.194,1.53
2.195,1.5
2.196,1.47
2.197,1.45
2.198,1.43
2.199,1.42
2.2,1.41
2.201,1.41
2.202,1.4
2.203,1.4
2.204,1.4
2.205,1.4
2.206,1.4
2.207,1.4
2.208,1.4
2.209,1.4
2.21,1.4
2.211,1.38
2.212,1.38
2.213,1.38
2.214,1.38
2.215,1.37
2.216,1.36
2.217,1.36
2.218,1.36
2.219,1.36
2.22,1.36
2.221,1.35
2.222,1.35
2.223,1.35
2.224,1.35
2.225,1.35
2.226,1.34
2.227,1.33
2.228,1.33
2.229,1.33
2.23,1.33
2.231,1.33
2.232,1.33
2.233,1.33
2.234,1.33
2.235,1.33
2.236,1.33
2.237,1.33
2.238,1.33
2.239,1.33
2.24,1.33
2.241,1.33
2.242,1.33
2.243,1.33
2.244,1.33
2.245,1.33
2.246,1.33
2.247,1.33
2.248,1.33
2.249,1.33
2.25,1.33
2.251,1.33
2.252,1.33
2.253,1.33
2.254,1.33
2.255,1.33
2.256,1.33
2.257,1.33
2.258,1.33
2.259,1.33
2.26,1.34
2.261,1.34
2.262,1.34
2.263,1.35
2.264,1.35
2.265,1.35
2.266,1.35
2.267,1.35
2.268,1.35
2.269,1.35
2.27,1.35
2.271,1.35
2.272,1.35
2.273,1.34
2.274,1.33
2.275,1.34
2.276,1.33
2.277,1.33
2.278,1.33
2.279,1.34
2.28,1.35
2.281,1.35
2.282,1.35
2.283,1.35
2.284,1.35
2.285,1.35
2.286,1.35
2.287,1.35
2.288,1.35
2.289,1.35
2.29,1.35
2.291,1.35
2.292,1.35
2.293,1.35
2.294,1.35
2.295,1.35
2.296,1.35
2.297,1.35
2.298,1.35
2.299,1.35
2.3,1.35
2.301,1.35
2.302,1.35
2.303,1.35
2.304,1.35
2.305,1.35
2.306,1.35
2.307,1.35
2.308,1.35
2.309,1.35
2.31,1.35
2.311,1.35
2.312,1.35
2.313,1.35
2.314,1.35
2.315,1.35
2.316,1.35
2.317,1.35
2.318,1.35
2.319,1.35
2.32,1.35
2.321,1.35
2.322,1.35
2.323,1.35
2.324,1.35
2.325,1.35
2.326,1.35
2.327,1.35
2.328,1.35
2.329,1.35
2.33,1.35
2.331,1.35
2.332,1.35
2.333,1.35
2.334,1.35
2.335,1.35
2.336,1.35
2.337,1.35
2.338,1.35
2.339,1.35
2.34,1.35
2.341,1.35
2.342,1.35
2.343,1.35
2.344,1.35
2.345,1.35
2.346,1.35
2.347,1.35
2.348,1.35
2.349,1.35
2.35,1.35
2.351,1.35
2.352,1.35
2.353,1.35
2.354,1.35
2.355,1.35
2.356,1.35
2.357,1.35
2.358,1.35
2.359,1.35
2.36,1.35
2.361,1.35
2.362,1.35
2.363,1.35
2.364,1.35
2.365,1.35
2.366,1.35
2.367,1.35
2.368,1.35
2.369,1.35
2.37,1.35
2.371,1.35
2.372,1.35
2.373,1.35
2.374,1.35
2.375,1.35
2.376,1.35
2.377,1.35
2.378,1.35
2.379,1.35
2.38,1.35
2.381,1.35
2.382,1.35
2.383,1.35
2.384,1.35
2.385,1.35
2.386,1.36
2.387,1.36
2.388,1.36
2.389,1.36
2.39,1.36
2.391,1.36
2.392,1.36
2.393,1.36
2.394,1.36
2.395,1.36
2.396,1.36
2.397,1.36
2.398,1.36
2.399,1.36
2.4,1.36
2.401,1.36
2.402,1.36
2.403,1.36
2.404,1.37
2.405,1.37
2.406,1.37
2.407,1.37
2.408,1.37
2.409,1.37
2.41,1.38
2.411,1.38
2.412,1.38
2.413,1.38
2.414,1.38
2.415,1.38
2.416,1.38
2.417,1.38
2.418,1.38
2.419,1.38
2.42,1.38
2.421,1.38
2.422,1.39
2.423,1.4
2.424,1.4
2.425,1.4
2.426,1.4
2.427,1.4
2.428,1.4
2.429,1.4
2.43,1.4
2.431,1.4
2.432,1.4
2.433,1.4
2.434,1.4
2.435,1.41
2.436,1.41
2.437,1.41
2.438,1.41
2.439,1.41
2.44,1.41
2.441,1.41
2.442,1.41
2.443,1.41
2.444,1.41
2.445,1.41
2.446,1.41
2.447,1.41
2.448,1.4
2.449,1.4
2.45,1.4
2.451,1.4
2.452,1.4
2.453,1.4
2.454,1.4
2.455,1.4
2.456,1.4
2.457,1.4
2.458,1.39
2.459,1.39
2.46,1.38
2.461,1.38
2.462,1.38
2.463,1.38
2.464,1.38
2.465,1.38
2.466,1.38
2.467,1.38
2.468,1.38
2.469,1.38
2.47,1.38
2.471,1.38
2.472,1.38
2.473,1.38
2.474,1.38
2.475,1.38
2.476,1.38
2.477,1.38
2.478,1.38
2.479,1.38
2.48,1.38
2.481,1.38
2.482,1.38
2.483,1.37
2.484,1.37
2.485,1.37
2.486,1.37
2.487,1.37
2.488,1.37
2.489,1.37
2.49,1.37
2.491,1.37
2.492,1.37
2.493,1.37
2.494,1.37
2.495,1.37
2.496,1.37
2.497,1.37
2.498,1.37
2.499,1.37
2.5,1.37
2.501,1.37
2.502,1.37
2.503,1.37
2.504,1.37
2.505,1.37
2.506,1.37
2.507,1.37
2.508,1.37
2.509,1.37
2.51,1.37
2.511,1.37
2.512,1.37
2.513,1.37
2.514,1.37
2.515,1.37
2.516,1.37
2.517,1.37
2.518,1.37
2.519,1.37
2.52,1.37
2.521,1.37
2.522,1.37
2.523,1.37
2.524,1.37
2.525,1.37
2.526,1.37
2.527,1.37
2.528,1.37
2.529,1.37
2.53,1.37
2.531,1.37
2.532,1.37
2.533,1.37
2.534,1.36
2.535,1.37
2.536,1.37
2.537,1.37
2.538,1.37
2.539,1.37
2.54,1.37
2.541,1.37
2.542,1.37
2.543,1.37
2.544,1.37
2.545,1.37
2.546,1.37
2.547,1.37
2.548,1.37
2.549,1.37
2.55,1.36
2.551,1.37
2.552,1.36
2.553,1.37
2.554,1.36
2.555,1.36
2.556,1.37
2.557,1.37
2.558,1.36
2.559,1.37
2.56,1.37
2.561,1.37
2.562,1.37
2.563,1.37
2.564,1.37
2.565,1.37
2.566,1.37
2.567,1.37
2.568,1.37
2.569,1.37
2.57,1.37
2.571,1.37
2.572,1.36
2.573,1.36
2.574,1.36
2.575,1.36
2.576,1.36
2.577,1.36
2.578,1.36
2.579,1.36
2.58,1.36
2.581,1.36
2.582,1.37
2.583,1.37
2.584,1.37
2.585,1.37
2.586,1.37
2.587,1.37
2.588,1.37
2.589,1.37
2.59,1.37
2.591,1.37
2.592,1.37
2.593,1.37
2.594,1.37
2.595,1.37
2.596,1.37
2.597,1.37
2.598,1.37
2.599,1.37
2.6,1.37
2.601,1.37
2.602,1.37
2.603,1.37
2.604,1.37
2.605,1.37
2.606,1.37
2.607,1.37
2.608,1.37
2.609,1.37
2.61,1.37
2.611,1.37
2.612,1.37
2.613,1.37
2.614,1.37
2.615,1.37
2.616,1.37
2.617,1.37
2.618,1.37
2.619,1.37
2.62,1.37
2.621,1.37
2.622,1.37
2.623,1.37
2.624,1.37
2.625,1.37
2.626,1.37
2.627,1.37
2.628,1.37
2.629,1.37
2.63,1.37
2.631,1.37
2.632,1.37
2.633,1.37
2.634,1.37
2.635,1.37
2.636,1.38
2.637,1.38
2.638,1.37
2.639,1.38
2.64,1.37
2.641,1.38
2.642,1.38
2.643,1.38
2.644,1.38
2.645,1.38
2.646,1.38
2.647,1.38
2.648,1.38
2.649,1.38
2.65,1.38
2.651,1.38
2.652,1.38
2.653,1.38
2.654,1.38
2.655,1.38
2.656,1.38
2.657,1.38
2.658,1.38
2.659,1.38
2.66,1.38
2.661,1.38
2.662,1.38
2.663,1.38
2.664,1.38
2.665,1.38
2.666,1.38
2.667,1.38
2.668,1.38
2.669,1.38
2.67,1.38
2.671,1.38
2.672,1.38
2.673,1.38
2.674,1.38
2.675,1.38
2.676,1.38
2.677,1.38
2.678,1.38
2.679,1.38
2.68,1.38
2.681,1.38
2.682,1.38
2.683,1.38
2.684,1.38
2.685,1.38
2.686,1.38
2.687,1.38
2.688,1.38
2.689,1.38
2.69,1.38
2.691,1.38
2.692,1.38
2.693,1.38
2.694,1.38
2.695,1.38
2.696,1.38
2.697,1.38
2.698,1.38
2.699,1.38
2.7,1.38
2.701,1.38
2.702,1.38
2.703,1.38
2.704,1.38
2.705,1.38
2.706,1.38
2.707,1.38
2.708,1.38
2.709,1.38
2.71,1.38
2.711,1.38
2.712,1.38
2.713,1.38
2.714,1.38
2.715,1.38
2.716,1.38
2.717,1.38
2.718,1.38
2.719,1.38
2.72,1.38
2.721,1.38
2.722,1.38
2.723,1.38
2.724,1.38
2.725,1.38
2.726,1.38
2.727,1.38
2.728,1.38
2.729,1.38
2.73,1.38
2.731,1.38
2.732,1.38
2.733,1.38
2.734,1.38
2.735,1.38
2.736,1.38
2.737,1.38
2.738,1.38
2.739,1.38
2.74,1.38
2.741,1.38
2.742,1.38
2.743,1.38
2.744,1.38
2.745,1.38
2.746,1.38
2.747,1.38
2.748,1.38
2.749,1.38
2.75,1.38
2.751,1.38
2.752,1.38
2.753,1.38
2.754,1.38
2.755,1.38
2.756,1.38
2.757,1.38
2.758,1.38
2.759,1.38
2.76,1.38
2.761,1.38
2.762,1.38
2.763,1.38
2.764,1.38
2.765,1.38
2.766,1.38
2.767,1.38
2.768,1.38
2.769,1.38
2.77,1.38
2.771,1.38
2.772,1.38
2.773,1.38
2.774,1.38
2.775,1.38
2.776,1.38
2.777,1.38
2.778,1.38
2.779,1.38
2.78,1.38
2.781,1.38
2.782,1.38
2.783,1.38
2.784,1.38
2.785,1.38
2.786,1.38
2.787,1.38
2.788,1.38
2.789,1.38
2.79,1.38
2.791,1.38
2.792,1.38
2.793,1.38
2.794,1.38
2.795,1.38
2.796,1.38
2.797,1.38
2.798,1.38
2.799,1.38
2.8,1.38
2.801,1.38
2.802,1.38
2.803,1.38
2.804,1.38
2.805,1.38
2.806,1.38
2.807,1.38
2.808,1.38
2.809,1.38
2.81,1.39
2.811,1.39
2.812,1.39
2.813,1.39
2.814,1.4
2.815,1.4
2.816,1.4
2.817,1.4
2.818,1.4
2.819,1.4
2.82,1.4
2.821,1.4
2.822,1.4
2.823,1.4
2.824,1.4
2.825,1.4
2.826,1.4
2.827,1.4
2.828,1.4
2.829,1.4
2.83,1.4
2.831,1.4
2.832,1.4
2.833,1.4
2.834,1.4
2.835,1.4
2.836,1.4
2.837,1.4
2.838,1.4
2.839,1.4
2.84,1.4
2.841,1.4
2.842,1.4
2.843,1.4
2.844,1.4
2.845,1.4
2.846,1.4
2.847,1.4
2.848,1.4
2.849,1.4
2.85,1.4
2.851,1.4
2.852,1.4
2.853,1.4
2.854,1.4
2.855,1.4
2.856,1.4
2.857,1.4
2.858,1.4
2.859,1.4
2.86,1.4
2.861,1.4
2.862,1.4
2.863,1.4
2.864,1.4
2.865,1.4
2.866,1.4
2.867,1.4
2.868,1.4
2.869,1.4
2.87,1.4
2.871,1.4
2.872,1.4
2.873,1.4
2.874,1.4
2.875,1.4
2.876,1.4
2.877,1.4
2.878,1.4
2.879,1.4
2.88,1.4
2.881,1.4
2.882,1.4
2.883,1.4
2.884,1.4
2.885,1.4
2.886,1.4
2.887,1.4
2.888,1.4
2.889,1.4
2.89,1.4
2.891,1.4
2.892,1.4
2.893,1.4
2.894,1.4
2.895,1.4
2.896,1.4
2.897,1.4
2.898,1.4
2.899,1.4
2.9,1.4
2.901,1.41
2.902,1.41
2.903,1.41
2.904,1.41
2.905,1.41
2.906,1.41
2.907,1.4
2.908,1.4
2.909,1.4
2.91,1.4
2.911,1.4
2.912,1.4
2.913,1.4
2.914,1.4
2.915,1.4
2.916,1.4
2.917,1.4
2.918,1.4
2.919,1.4
2.92,1.4
2.921,1.4
2.922,1.4
2.923,1.4
2.924,1.4
2.925,1.4
2.926,1.4
2.927,1.4
2.928,1.4
2.929,1.4
2.93,1.4
2.931,1.4
2.932,1.4
2.933,1.4
2.934,1.4
2.935,1.4
2.936,1.39
2.937,1.39
2.938,1.39
2.939,1.39
2.94,1.39
2.941,1.39
2.942,1.39
2.943,1.39
2.944,1.39
2.945,1.39
2.946,1.39
2.947,1.39
2.948,1.39
2.949,1.39
2.95,1.39
2.951,1.39
2.952,1.39
2.953,1.39
2.954,1.39
2.955,1.39
2.956,1.39
2.957,1.39
2.958,1.39
2.959,1.4
2.96,1.4
2.961,1.39
2.962,1.4
2.963,1.4
2.964,1.4
2.965,1.4
2.966,1.39
2.967,1.39
2.968,1.39
2.969,1.39
2.97,1.39
2.971,1.38
2.972,1.38
2.973,1.38
2.974,1.38
2.975,1.38
2.976,1.38
2.977,1.38
2.978,1.38
2.979,1.38
2.98,1.38
2.981,1.38
2.982,1.38
2.983,1.38
2.984,1.38
2.985,1.38
2.986,1.38
2.987,1.37
2.988,1.37
2.989,1.36
2.99,1.36
2.991,1.36
2.992,1.35
2.993,1.35
2.994,1.33
2.995,1.33
2.996,1.33
2.997,1.33
2.998,1.33
2.999,1.32
3.0,1.32
3.001,1.32
3.002,1.32
3.003,1.33
3.004,1.33
3.005,1.35
3.006,1.35
3.007,1.36
3.008,1.38
3.009,1.41
3.01,1.43
3.011,1.45
3.012,1.48
3.013,1.51
3.014,1.55
3.015,1.58
3.016,1.62
3.017,1.67
3.018,1.69
3.019,1.73
3.02,1.78
3.021,1.8
3.022,1.85
3.023,1.87
3.024,1.91
3.025,1.93
3.026,1.96
3.027,1.97
3.028,1.99
3.029,1.99
3.03,1.99
3.031,1.99
3.032,1.98
3.033,1.97
3.034,1.95
3.035,1.92
3.036,1.87
3.037,1.85
3.038,1.8
3.039,1.76
3.04,1.72
3.041,1.68
3.042,1.63
3.043,1.59
3.044,1.55
3.045,1.51
3.046,1.48
3.047,1.45
3.048,1.43
3.049,1.42
3.05,1.41
3.051,1.4
3.052,1.4
3.053,1.4
3.054,1.4
3.055,1.4
3.056,1.4
3.057,1.4
3.058,1.4
3.059,1.4
3.06,1.4
3.061,1.4
3.062,1.38
3.063,1.38
3.064,1.38
3.065,1.38
3.066,1.37
3.067,1.36
3.068,1.36
3.069,1.36
3.07,1.35
3.071,1.35
3.072,1.35
3.073,1.35
3.074,1.35
3.075,1.34
3.076,1.33
3.077,1.33
3.078,1.33
3.079,1.34
3.08,1.35
3.081,1.35
3.082,1.35
3.083,1.35
3.084,1.35
3.085,1.35
3.086,1.35
3.087,1.35
3.088,1.35
3.089,1.35
3.09,1.35
3.091,1.35
3.092,1.35
3.093,1.34
3.094,1.33
3.095,1.33
3.096,1.33
3.097,1.33
3.098,1.33
3.099,1.33
3.1,1.33
3.101,1.33
3.102,1.33
3.103,1.33
3.104,1.33
3.105,1.33
3.106,1.33
3.107,1.33
3.108,1.33
3.109,1.33
3.11,1.33
3.111,1.33
3.112,1.33
3.113,1.33
3.114,1.33
3.115,1.34
3.116,1.33
3.117,1.34
3.118,1.34
3.119,1.34
3.12,1.35
3.121,1.35
3.122,1.35
3.123,1.35
3.124,1.35
3.125,1.35
3.126,1.35
3.127,1.35
3.128,1.35
3.129,1.35
3.13,1.35
3.131,1.35
3.132,1.35
3.133,1.35
3.134,1.35
3.135,1.35
3.136,1.35
3.137,1.35
3.138,1.35
3.139,1.35
3.14,1.35
3.141,1.35
3.142,1.35
3.143,1.35
3.144,1.35
3.145,1.35
3.146,1.35
3.147,1.35
3.148,1.35
3.149,1.35
3.15,1.35
3.151,1.35
3.152,1.35
3.153,1.35
3.154,1.35
3.155,1.35
3.156,1.35
3.157,1.35
3.158,1.35
3.159,1.35
3.16,1.35
3.161,1.35
3.162,1.35
3.163,1.35
3.164,1.35
3.165,1.35
3.166,1.35
3.167,1.36
3.168,1.36
3.169,1.36
3.17,1.36
3.171,1.36
3.172,1.36
3.173,1.36
3.174,1.36
3.175,1.36
3.176,1.36
3.177,1.36
3.178,1.36
3.179,1.36
3.18,1.36
3.181,1.36
3.182,1.36
3.183,1.36
3.184,1.36
3.185,1.36
3.186,1.36
3.187,1.36
3.188,1.36
3.189,1.36
3.19,1.36
3.191,1.36
3.192,1.36
3.193,1.36
3.194,1.36
3.195,1.36
3.196,1.36
3.197,1.36
3.198,1.36
3.199,1.36
3.2,1.36
3.201,1.36
3.202,1.36
3.203,1.36
3.204,1.36
3.205,1.36
3.206,1.36
3.207,1.36
3.208,1.36
3.209,1.36
3.21,1.36
3.211,1.36
3.212,1.36
3.213,1.36
3.214,1.36
3.215,1.36
3.216,1.36
3.217,1.36
3.218,1.36
3.219,1.36
3.22,1.36
3.221,1.36
3.222,1.36
3.223,1.36
3.224,1.36
3.225,1.36
3.226,1.36
3.227,1.36
3.228,1.36
3.229,1.36
3.23,1.36
3.231,1.36
3.232,1.36
3.233,1.36
3.234,1.36
3.235,1.36
3.236,1.36
3.237,1.36
3.238,1.36
3.239,1.37
3.24,1.37
3.241,1.37
3.242,1.37
3.243,1.37
3.244,1.37
3.245,1.37
3.246,1.38
3.247,1.38
3.248,1.38
3.249,1.38
3.25,1.38
3.251,1.38
3.252,1.38
3.253,1.38
3.254,1.38
3.255,1.38
3.256,1.38
3.257,1.38
3.258,1.38
3.259,1.38
3.26,1.38
3.261,1.39
3.262,1.39
3.263,1.39
3.264,1.4
3.265,1.4
3.266,1.4
3.267,1.4
3.268,1.4
3.269,1.4
3.27,1.4
3.271,1.4
3.272,1.4
3.273,1.4
3.274,1.4
3.275,1.4
3.276,1.41
3.277,1.41
3.278,1.41
3.279,1.41
3.28,1.41
3.281,1.41
3.282,1.41
3.283,1.41
3.284,1.41
3.285,1.41
3.286,1.41
3.287,1.41
3.288,1.41
3.289,1.41
3.29,1.41
3.291,1.41
3.292,1.41
3.293,1.41
3.294,1.41
3.295,1.41
3.296,1.41
3.297,1.4
3.298,1.4
3.299,1.4
3.3,1.4
3.301,1.4
3.302,1.4
3.303,1.4
3.304,1.4
3.305,1.4
3.306,1.39
3.307,1.39
3.308,1.38
3.309,1.38
3.31,1.38
3.311,1.38
3.312,1.38
3.313,1.38
3.314,1.38
3.315,1.38
3.316,1.38
3.317,1.38
3.318,1.38
3.319,1.38
3.32,1.38
3.321,1.38
3.322,1.38
3.323,1.38
3.324,1.38
3.325,1.38
3.326,1.38
3.327,1.37
3.328,1.37
3.329,1.37
3.33,1.37
3.331,1.37
3.332,1.37
3.333,1.37
3.334,1.37
3.335,1.37
3.336,1.37
3.337,1.37
3.338,1.37
3.339,1.37
3.34,1.37
3.341,1.37
3.342,1.36
3.343,1.36
3.344,1.36
3.345,1.36
3.346,1.36
3.347,1.36
3.348,1.36
3.349,1.36
3.35,1.36
3.351,1.36
3.352,1.36
3.353,1.36
3.354,1.36
3.355,1.36
3.356,1.36
3.357,1.36
3.358,1.36
3.359,1.36
3.36,1.36
3.361,1.36
3.362,1.36
3.363,1.36
3.364,1.36
3.365,1.36
3.366,1.36
3.367,1.36
3.368,1.36
3.369,1.36
3.37,1.36
3.371,1.36
3.372,1.36
3.373,1.36
3.374,1.36
3.375,1.36
3.376,1.36
3.377,1.36
3.378,1.36
3.379,1.36
3.38,1.36
3.381,1.36
3.382,1.36
3.383,1.36
3.384,1.36
3.385,1.36
3.386,1.36
3.387,1.36
3.388,1.36
3.389,1.36
3.39,1.36
3.391,1.37
3.392,1.37
3.393,1.37
3.394,1.37
3.395,1.37
3.396,1.37
3.397,1.37
3.398,1.36
3.399,1.37
3.4,1.36
3.401,1.37
3.402,1.37
3.403,1.37
3.404,1.36
3.405,1.36
3.406,1.37
3.407,1.37
3.408,1.37
3.409,1.37
3.41,1.37
3.411,1.37
3.412,1.37
3.413,1.37
3.414,1.37
3.415,1.37
3.416,1.37
3.417,1.37
3.418,1.37
3.419,1.37
3.42,1.37
3.421,1.37
3.422,1.37
3.423,1.38
3.424,1.38
3.425,1.38
3.426,1.38
3.427,1.38
3.428,1.38
3.429,1.38
3.43,1.38
3.431,1.38
3.432,1.38
3.433,1.38
3.434,1.38
3.435,1.38
3.436,1.38
3.437,1.38
3.438,1.38
3.439,1.38
3.44,1.38
3.441,1.38
3.442,1.38
3.443,1.38
3.444,1.38
3.445,1.38
3.446,1.38
3.447,1.38
3.448,1.38
3.449,1.38
3.45,1.38
3.451,1.38
3.452,1.38
3.453,1.38
3.454,1.38
3.455,1.38
3.456,1.38
3.457,1.38
3.458,1.38
3.459,1.38
3.46,1.38
3.461,1.38
3.462,1.38
3.463,1.38
3.464,1.38
3.465,1.38
3.466,1.38
3.467,1.38
3.468,1.38
3.469,1.38
3.47,1.38
3.471,1.38
3.472,1.38
3.473,1.38
3.474,1.38
3.475,1.38
3.476,1.38
3.477,1.38
3.478,1.38
3.479,1.38
3.48,1.38
3.481,1.38
3.482,1.38
3.483,1.38
3.484,1.38
3.485,1.38
3.486,1.38
3.487,1.38
3.488,1.38
3.489,1.38
3.49,1.38
3.491,1.38
3.492,1.38
3.493,1.38
3.494,1.38
3.495,1.38
3.496,1.38
3.497,1.38
3.498,1.38
3.499,1.38
3.5,1.38
3.501,1.38
3.502,1.38
3.503,1.38
3.504,1.38
3.505,1.38
3.506,1.38
3.507,1.38
3.508,1.38
3.509,1.38
3.51,1.38
3.511,1.38
3.512,1.38
3.513,1.38
3.514,1.38
3.515,1.38
3.516,1.38
3.517,1.38
3.518,1.38
3.519,1.38
3.52,1.38
3.521,1.38
3.522,1.38
3.523,1.38
3.524,1.38
3.525,1.38
3.526,1.38
3.527,1.38
3.528,1.38
3.529,1.38
3.53,1.38
3.531,1.38
3.532,1.38
3.533,1.38
3.534,1.38
3.535,1.38
3.536,1.38
3.537,1.38
3.538,1.38
3.539,1.38
3.54,1.38
3.541,1.38
3.542,1.38
3.543,1.38
3.544,1.38
3.545,1.38
3.546,1.38
3.547,1.38
3.548,1.38
3.549,1.38
3.55,1.38
3.551,1.38
3.552,1.38
3.553,1.38
3.554,1.38
3.555,1.38
3.556,1.38
3.557,1.38
3.558,1.38
3.559,1.38
3.56,1.38
3.561,1.38
3.562,1.38
3.563,1.38
3.564,1.38
3.565,1.38
3.566,1.38
3.567,1.38
3.568,1.38
3.569,1.38
3.57,1.38
3.571,1.38
3.572,1.38
3.573,1.38
3.574,1.38
3.575,1.38
3.576,1.38
3.577,1.38
3.578,1.38
3.579,1.38
3.58,1.38
3.581,1.38
3.582,1.38
3.583,1.38
3.584,1.38
3.585,1.38
3.586,1.38
3.587,1.38
3.588,1.38
3.589,1.38
3.59,1.38
3.591,1.38
3.592,1.38
3.593,1.38
3.594,1.38
3.595,1.38
3.596,1.38
3.597,1.38
3.598,1.38
3.599,1.38
3.6,1.38
3.601,1.38
3.602,1.38
3.603,1.38
3.604,1.38
3.605,1.38
3.606,1.38
3.607,1.38
3.608,1.38
3.609,1.38
3.61,1.38
3.611,1.38
3.612,1.38
3.613,1.38
3.614,1.38
3.615,1.38
3.616,1.38
3.617,1.38
3.618,1.38
3.619,1.38
3.62,1.38
3.621,1.38
3.622,1.38
3.623,1.38
3.624,1.38
3.625,1.38
3.626,1.38
3.627,1.38
3.628,1.38
3.629,1.38
3.63,1.38
3.631,1.38
3.632,1.38
3.633,1.38
3.634,1.38
3.635,1.38
3.636,1.38
3.637,1.38
3.638,1.38
3.639,1.38
3.64,1.38
3.641,1.38
3.642,1.38
3.643,1.38
3.644,1.38
3.645,1.38
3.646,1.38
3.647,1.38
3.648,1.38
3.649,1.38
3.65,1.38
3.651,1.38
3.652,1.38
3.653,1.38
3.654,1.38
3.655,1.38
3.656,1.38
3.657,1.38
3.658,1.38
3.659,1.38
3.66,1.38
3.661,1.38
3.662,1.38
3.663,1.38
3.664,1.38
3.665,1.38
3.666,1.38
3.667,1.38
3.668,1.38
3.669,1.38
3.67,1.38
3.671,1.38
3.672,1.38
3.673,1.38
3.674,1.38
3.675,1.38
3.676,1.38
3.677,1.38
3.678,1.38
3.679,1.38
3.68,1.38
3.681,1.38
3.682,1.38
3.683,1.38
3.684,1.38
3.685,1.38
3.686,1.38
3.687,1.39
3.688,1.39
3.689,1.39
3.69,1.4
3.691,1.4
3.692,1.4
3.693,1.4
3.694,1.4
3.695,1.4
3.696,1.4
3.697,1.4
3.698,1.4
3.699,1.4
3.7,1.4
3.701,1.4
3.702,1.4
3.703,1.4
3.704,1.4
3.705,1.39
3.706,1.39
3.707,1.38
3.708,1.38
3.709,1.38
3.71,1.38
3.711,1.38
3.712,1.38
3.713,1.38
3.714,1.38
3.715,1.38
3.716,1.38
3.717,1.38
3.718,1.38
3.719,1.38
3.72,1.38
3.721,1.38
3.722,1.38
3.723,1.38
3.724,1.38
3.725,1.38
3.726,1.38
3.727,1.38
3.728,1.38
3.729,1.38
3.73,1.38
3.731,1.38
3.732,1.38
3.733,1.38
3.734,1.38
3.735,1.38
3.736,1.38
3.737,1.38
3.738,1.38
3.739,1.38
3.74,1.38
3.741,1.38
3.742,1.38
3.743,1.38
3.744,1.38
3.745,1.38
3.746,1.38
3.747,1.38
3.748,1.38
3.749,1.38
3.75,1.38
3.751,1.38
3.752,1.38
3.753,1.38
3.754,1.38
3.755,1.38
3.756,1.38
3.757,1.38
3.758,1.38
3.759,1.38
3.76,1.38
3.761,1.38
3.762,1.38
3.763,1.38
3.764,1.38
3.765,1.38
3.766,1.38
3.767,1.38
3.768,1.38
3.769,1.38
3.77,1.38
3.771,1.38
3.772,1.38
3.773,1.38
3.774,1.37
3.775,1.37
3.776,1.37
3.777,1.36
3.778,1.36
3.779,1.36
3.78,1.36
3.781,1.35
3.782,1.35
3.783,1.33
3.784,1.33
3.785,1.33
3.786,1.32
3.787,1.32
3.788,1.32
3.789,1.32
3.79,1.32
3.791,1.32
3.792,1.32
3.793,1.32
3.794,1.32
3.795,1.33
3.796,1.34
3.797,1.36
3.798,1.37
3.799,1.38
3.8,1.41
3.801,1.43
3.802,1.46
3.803,1.49
3.804,1.52
3.805,1.56
3.806,1.59
3.807,1.63
3.808,1.67
3.809,1.71
3.81,1.74
3.811,1.78
3.812,1.82
3.813,1.85
3.814,1.87
3.815,1.9
3.816,1.92
3.817,1.94
3.818,1.95
3.819,1.96
3.82,1.96
3.821,1.95
3.822,1.95
3.823,1.92
3.824,1.9
3.825,1.87
3.826,1.85
3.827,1.82
3.828,1.78
3.829,1.73
3.83,1.69
3.831,1.65
3.832,1.6
3.833,1.57
3.834,1.52
3.835,1.5
3.836,1.46
3.837,1.44
3.838,1.43
3.839,1.41
3.84,1.4
3.841,1.4
3.842,1.38
3.843,1.38
3.844,1.38
3.845,1.38
3.846,1.38
3.847,1.39
3.848,1.39
3.849,1.38
3.85,1.38
3.851,1.38
3.852,1.38
3.853,1.38
3.854,1.37
3.855,1.37
3.856,1.36
3.857,1.36
3.858,1.36
3.859,1.35
3.86,1.35
3.861,1.35
3.862,1.35
3.863,1.33
3.864,1.33
3.865,1.33
3.866,1.33
3.867,1.33
3.868,1.33
3.869,1.33
3.87,1.33
3.871,1.33
3.872,1.33
3.873,1.33
3.874,1.33
3.875,1.33
3.876,1.33
3.877,1.33
3.878,1.33
3.879,1.33
3.88,1.33
3.881,1.33
3.882,1.33
3.883,1.33
3.884,1.33
3.885,1.33
3.886,1.33
3.887,1.33
3.888,1.33
3.889,1.33
3.89,1.33
3.891,1.33
3.892,1.33
3.893,1.33
3.894,1.33
3.895,1.33
3.896,1.33
3.897,1.33
3.898,1.33
3.899,1.33
3.9,1.33
3.901,1.33
3.902,1.33
3.903,1.33
3.904,1.33
3.905,1.33
3.906,1.33
3.907,1.33
3.908,1.33
3.909,1.33
3.91,1.33
3.911,1.33
3.912,1.33
3.913,1.33
3.914,1.33
3.915,1.33
3.916,1.33
3.917,1.33
3.918,1.33
3.919,1.33
3.92,1.33
3.921,1.33
3.922,1.33
3.923,1.33
3.924,1.33
3.925,1.33
3.926,1.33
3.927,1.33
3.928,1.33
3.929,1.33
3.93,1.33
3.931,1.33
3.932,1.33
3.933,1.33
3.934,1.33
3.935,1.33
3.936,1.33
3.937,1.33
3.938,1.33
3.939,1.33
3.94,1.33
3.941,1.33
3.942,1.34
3.943,1.34
3.944,1.34
3.945,1.34
3.946,1.34
3.947,1.34
3.948,1.34
3.949,1.34
3.95,1.34
3.951,1.34
3.952,1.34
3.953,1.34
3.954,1.35
3.955,1.35
3.956,1.35
3.957,1.35
3.958,1.35
3.959,1.35
3.96,1.35
3.961,1.35
3.962,1.35
3.963,1.35
3.964,1.35
3.965,1.35
3.966,1.35
3.967,1.35
3.968,1.35
3.969,1.35
3.97,1.35
3.971,1.35
3.972,1.35
3.973,1.35
3.974,1.35
3.975,1.35
3.976,1.35
3.977,1.35
3.978,1.35
3.979,1.35
3.98,1.35
3.981,1.35
3.982,1.35
3.983,1.35
3.984,1.35
3.985,1.35
3.986,1.35
3.987,1.35
3.988,1.35
3.989,1.35
3.99,1.35
3.991,1.35
3.992,1.35
3.993,1.35
3.994,1.35
3.995,1.35
3.996,1.35
3.997,1.35
3.998,1.35
3.999,1.35
4.0,1.35
4.001,1.35
4.002,1.35
4.003,1.35
4.004,1.35
4.005,1.35
4.006,1.35
4.007,1.35
4.008,1.35
4.009,1.35
4.01,1.35
4.011,1.35
4.012,1.35
4.013,1.35
4.014,1.35
4.015,1.35
4.016,1.35
4.017,1.35
4.018,1.35
4.019,1.35
4.02,1.35
4.021,1.35
4.022,1.35
4.023,1.35
4.024,1.35
4.025,1.36
4.026,1.36
4.027,1.36
4.028,1.36
4.029,1.36
4.03,1.36
4.031,1.36
4.032,1.36
4.033,1.36
4.034,1.36
4.035,1.36
4.036,1.36
4.037,1.36
4.038,1.36
4.039,1.36
4.04,1.36
4.041,1.36
4.042,1.37
4.043,1.37
4.044,1.37
4.045,1.37
4.046,1.37
4.047,1.37
4.048,1.37
4.049,1.38
4.05,1.38
4.051,1.38
4.052,1.38
4.053,1.38
4.054,1.38
4.055,1.38
4.056,1.38
4.057,1.38
4.058,1.38
4.059,1.38
4.06,1.38
4.061,1.38
4.062,1.38
4.063,1.38
4.064,1.38
4.065,1.38
4.066,1.38
4.067,1.39
4.068,1.39
4.069,1.39
4.07,1.4
4.071,1.4
4.072,1.4
4.073,1.4
4.074,1.4
4.075,1.4
4.076,1.4
4.077,1.4
4.078,1.4
4.079,1.4
4.08,1.4
4.081,1.4
4.082,1.4
4.083,1.4
4.084,1.39
4.085,1.39
4.086,1.39
4.087,1.38
4.088,1.38
4.089,1.38
4.09,1.38
4.091,1.38
4.092,1.38
4.093,1.38
4.094,1.38
4.095,1.38
4.096,1.38
4.097,1.38
4.098,1.38
4.099,1.38
4.1,1.37
4.101,1.37
4.102,1.37
4.103,1.37
4.104,1.37
4.105,1.37
4.106,1.37
4.107,1.36
4.108,1.36
4.109,1.36
4.11,1.36
4.111,1.36
4.112,1.36
4.113,1.36
4.114,1.36
4.115,1.36
4.116,1.36
4.117,1.36
4.118,1.36
4.119,1.36
4.12,1.36
4.121,1.36
4.122,1.36
4.123,1.36
4.124,1.36
4.125,1.36
4.126,1.36
4.127,1.36
4.128,1.36
4.129,1.36
4.13,1.36
4.131,1.36
4.132,1.36
4.133,1.36
4.134,1.36
4.135,1.36
4.136,1.36
4.137,1.36
4.138,1.36
4.139,1.36
4.14,1.36
4.141,1.36
4.142,1.36
4.143,1.36
4.144,1.36
4.145,1.36
4.146,1.36
4.147,1.36
4.148,1.36
4.149,1.36
4.15,1.36
4.151,1.36
4.152,1.36
4.153,1.36
4.154,1.36
4.155,1.36
4.156,1.36
4.157,1.36
4.158,1.36
4.159,1.36
4.16,1.36
4.161,1.36
4.162,1.36
4.163,1.36
4.164,1.36
4.165,1.36
4.166,1.36
4.167,1.36
4.168,1.36
4.169,1.36
4.17,1.36
4.171,1.36
4.172,1.36
4.173,1.36
4.174,1.36
4.175,1.36
4.176,1.36
4.177,1.36
4.178,1.36
4.179,1.36
4.18,1.36
4.181,1.36
4.182,1.36
4.183,1.36
4.184,1.36
4.185,1.36
4.186,1.36
4.187,1.36
4.188,1.36
4.189,1.36
4.19,1.36
4.191,1.36
4.192,1.36
4.193,1.36
4.194,1.36
4.195,1.36
4.196,1.36
4.197,1.36
4.198,1.36
4.199,1.36
4.2,1.36
4.201,1.36
4.202,1.36
4.203,1.36
4.204,1.36
4.205,1.36
4.206,1.36
4.207,1.36
4.208,1.36
4.209,1.36
4.21,1.36
4.211,1.36
4.212,1.36
4.213,1.36
4.214,1.36
4.215,1.36
4.216,1.36
4.217,1.36
4.218,1.36
4.219,1.36
4.22,1.37
4.221,1.37
4.222,1.37
4.223,1.37
4.224,1.37
4.225,1.37
4.226,1.37
4.227,1.37
4.228,1.37
4.229,1.36
4.23,1.36
4.231,1.36
4.232,1.36
4.233,1.36
4.234,1.36
4.235,1.37
4.236,1.37
4.237,1.37
4.238,1.37
4.239,1.37
4.24,1.37
4.241,1.37
4.242,1.37
4.243,1.37
4.244,1.37
4.245,1.37
4.246,1.37
4.247,1.37
4.248,1.37
4.249,1.37
4.25,1.37
4.251,1.37
4.252,1.37
4.253,1.37
4.254,1.37
4.255,1.37
4.256,1.37
4.257,1.37
4.258,1.37
4.259,1.37
4.26,1.37
4.261,1.37
4.262,1.37
4.263,1.37
4.264,1.37
4.265,1.37
4.266,1.37
4.267,1.37
4.268,1.37
4.269,1.37
4.27,1.37
4.271,1.37
4.272,1.37
4.273,1.37
4.274,1.37
4.275,1.37
4.276,1.37
4.277,1.37
4.278,1.37
4.279,1.37
4.28,1.37
4.281,1.37
4.282,1.37
4.283,1.37
4.284,1.37
4.285,1.37
4.286,1.37
4.287,1.37
4.288,1.37
4.289,1.37
4.29,1.37
4.291,1.37
4.292,1.37
4.293,1.37
4.294,1.37
4.295,1.37
4.296,1.37
4.297,1.37
4.298,1.37
4.299,1.37
4.3,1.37
4.301,1.37
4.302,1.37
4.303,1.37
4.304,1.37
4.305,1.37
4.306,1.37
4.307,1.37
4.308,1.37
4.309,1.37
4.31,1.37
4.311,1.37
4.312,1.37
4.313,1.37
4.314,1.37
4.315,1.37
4.316,1.37
4.317,1.37
4.318,1.37
4.319,1.37
4.32,1.37
4.321,1.37
4.322,1.37
4.323,1.37
4.324,1.37
4.325,1.37
4.326,1.37
4.327,1.37
4.328,1.37
4.329,1.37
4.33,1.37
4.331,1.37
4.332,1.37
4.333,1.37
4.334,1.37
4.335,1.37
4.336,1.37
4.337,1.37
4.338,1.37
4.339,1.37
4.34,1.37
4.341,1.37
4.342,1.37
4.343,1.37
4.344,1.37
4.345,1.37
4.346,1.37
4.347,1.37
4.348,1.37
4.349,1.37
4.35,1.37
4.351,1.37
4.352,1.37
4.353,1.37
4.354,1.37
4.355,1.37
4.356,1.37
4.357,1.37
4.358,1.37
4.359,1.38
4.36,1.38
4.361,1.38
4.362,1.38
4.363,1.38
4.364,1.38
4.365,1.38
4.366,1.38
4.367,1.38
4.368,1.38
4.369,1.38
4.37,1.38
4.371,1.38
4.372,1.38
4.373,1.38
4.374,1.38
4.375,1.38
4.376,1.38
4.377,1.38
4.378,1.38
4.379,1.38
4.38,1.38
4.381,1.38
4.382,1.38
4.383,1.38
4.384,1.38
4.385,1.38
4.386,1.38
4.387,1.38
4.388,1.38
4.389,1.38
4.39,1.37
4.391,1.37
4.392,1.37
4.393,1.37
4.394,1.37
4.395,1.37
4.396,1.37
4.397,1.37
4.398,1.37
4.399,1.37
4.4,1.37
4.401,1.37
4.402,1.37
4.403,1.37
4.404,1.37
4.405,1.37
4.406,1.37
4.407,1.37
4.408,1.37
4.409,1.37
4.41,1.37
4.411,1.37
4.412,1.37
4.413,1.37
4.414,1.37
4.415,1.37
4.416,1.37
4.417,1.37
4.418,1.38
4.419,1.38
4.42,1.38
4.421,1.38
4.422,1.38
4.423,1.38
4.424,1.38
4.425,1.38
4.426,1.38
4.427,1.38
4.428,1.38
4.429,1.38
4.43,1.38
4.431,1.38
4.432,1.38
4.433,1.38
4.434,1.38
4.435,1.38
4.436,1.38
4.437,1.38
4.438,1.38
4.439,1.38
4.44,1.38
4.441,1.38
4.442,1.38
4.443,1.38
4.444,1.38
4.445,1.38
4.446,1.38
4.447,1.38
4.448,1.38
4.449,1.38
4.45,1.38
4.451,1.38
4.452,1.38
4.453,1.38
4.454,1.38
4.455,1.38
4.456,1.38
4.457,1.38
4.458,1.38
4.459,1.38
4.46,1.38
4.461,1.38
4.462,1.38
4.463,1.38
4.464,1.38
4.465,1.38
4.466,1.38
4.467,1.38
4.468,1.38
4.469,1.38
4.47,1.38
4.471,1.38
4.472,1.38
4.473,1.38
4.474,1.37
4.475,1.37
4.476,1.38
4.477,1.38
4.478,1.38
4.479,1.38
4.48,1.38
4.481,1.38
4.482,1.38
4.483,1.38
4.484,1.38
4.485,1.38
4.486,1.38
4.487,1.38
4.488,1.38
4.489,1.38
4.49,1.38
4.491,1.38
4.492,1.38
4.493,1.38
4.494,1.38
4.495,1.38
4.496,1.38
4.497,1.38
4.498,1.38
4.499,1.38
4.5,1.38
4.501,1.38
4.502,1.38
4.503,1.38
4.504,1.38
4.505,1.38
4.506,1.38
4.507,1.38
4.508,1.38
4.509,1.38
4.51,1.38
4.511,1.38
4.512,1.38
4.513,1.38
4.514,1.38
4.515,1.38
4.516,1.38
4.517,1.38
4.518,1.38
4.519,1.38
4.52,1.38
4.521,1.38
4.522,1.38
4.523,1.38
4.524,1.38
4.525,1.38
4.526,1.38
4.527,1.38
4.528,1.38
4.529,1.38
4.53,1.38
4.531,1.38
4.532,1.38
4.533,1.38
4.534,1.38
4.535,1.38
4.536,1.38
4.537,1.38
4.538,1.38
4.539,1.38
4.54,1.38
4.541,1.38
4.542,1.38
4.543,1.38
4.544,1.38
4.545,1.38
4.546,1.38
4.547,1.38
4.548,1.38
4.549,1.38
4.55,1.38
4.551,1.38
4.552,1.38
4.553,1.38
4.554,1.38
4.555,1.38
4.556,1.38
4.557,1.37
4.558,1.38
4.559,1.38
4.56,1.38
4.561,1.38
4.562,1.38
4.563,1.38
4.564,1.38
4.565,1.38
4.566,1.38
4.567,1.38
4.568,1.38
4.569,1.38
4.57,1.38
4.571,1.38
4.572,1.38
4.573,1.38
4.574,1.38
4.575,1.38
4.576,1.38
4.577,1.38
4.578,1.38
4.579,1.38
4.58,1.38
4.581,1.38
4.582,1.38
4.583,1.38
4.584,1.38
4.585,1.38
4.586,1.38
4.587,1.38
4.588,1.38
4.589,1.38
4.59,1.38
4.591,1.38
4.592,1.38
4.593,1.38
4.594,1.37
4.595,1.37
4.596,1.36
4.597,1.36
4.598,1.36
4.599,1.36
4.6,1.35
4.601,1.35
4.602,1.33
4.603,1.33
4.604,1.33
4.605,1.33
4.606,1.32
4.607,1.32
4.608,1.32
4.609,1.32
4.61,1.32
4.611,1.32
4.612,1.33
4.613,1.33
4.614,1.35
4.615,1.36
4.616,1.37
4.617,1.4
4.618,1.41
4.619,1.44
4.62,1.46
4.621,1.5
4.622,1.54
4.623,1.57
4.624,1.6
4.625,1.65
4.626,1.69
4.627,1.73
4.628,1.77
4.629,1.8
4.63,1.84
4.631,1.87
4.632,1.91
4.633,1.93
4.634,1.96
4.635,1.97
4.636,1.99
4.637,1.99
4.638,2.01
4.639,2.01
4.64,1.99
4.641,1.98
4.642,1.96
4.643,1.94
4.644,1.91
4.645,1.87
4.646,1.83
4.647,1.79
4.648,1.74
4.649,1.69
4.65,1.65
4.651,1.6
4.652,1.57
4.653,1.52
4.654,1.5
4.655,1.46
4.656,1.44
4.657,1.43
4.658,1.41
4.659,1.41
4.66,1.4
4.661,1.39
4.662,1.38
4.663,1.38
4.664,1.38
4.665,1.38
4.666,1.38
4.667,1.38
4.668,1.38
4.669,1.38
4.67,1.38
4.671,1.38
4.672,1.37
4.673,1.36
4.674,1.36
4.675,1.36
4.676,1.36
4.677,1.35
4.678,1.35
4.679,1.35
4.68,1.34
4.681,1.33
4.682,1.33
4.683,1.33
4.684,1.33
4.685,1.33
4.686,1.33
4.687,1.33
4.688,1.33
4.689,1.33
4.69,1.33
4.691,1.33
4.692,1.33
4.693,1.33
4.694,1.33
4.695,1.33
4.696,1.33
4.697,1.33
4.698,1.33
4.699,1.33
4.7,1.33
4.701,1.33
4.702,1.33
4.703,1.33
4.704,1.33
4.705,1.33
4.706,1.33
4.707,1.33
4.708,1.33
4.709,1.33
4.71,1.33
4.711,1.33
4.712,1.33
4.713,1.33
4.714,1.33
4.715,1.33
4.716,1.33
4.717,1.33
4.718,1.33
4.719,1.33
4.72,1.33
4.721,1.33
4.722,1.33
4.723,1.33
4.724,1.33
4.725,1.33
4.726,1.33
4.727,1.33
4.728,1.33
4.729,1.33
4.73,1.33
4.731,1.33
4.732,1.33
4.733,1.33
4.734,1.33
4.735,1.33
4.736,1.33
4.737,1.33
4.738,1.33
4.739,1.33
4.74,1.33
4.741,1.33
4.742,1.33
4.743,1.33
4.744,1.33
4.745,1.33
4.746,1.33
4.747,1.33
4.748,1.33
4.749,1.33
4.75,1.33
4.751,1.33
4.752,1.33
4.753,1.33
4.754,1.33
4.755,1.33
4.756,1.33
4.757,1.33
4.758,1.33
4.759,1.33
4.76,1.33
4.761,1.33
4.762,1.33
4.763,1.33
4.764,1.33
4.765,1.33
4.766,1.33
4.767,1.33
4.768,1.33
4.769,1.33
4.77,1.33
4.771,1.33
4.772,1.33
4.773,1.33
4.774,1.33
4.775,1.33
4.776,1.34
4.777,1.34
4.778,1.35
4.779,1.35
4.78,1.35
4.781,1.35
4.782,1.35
4.783,1.35
4.784,1.35
4.785,1.35
4.786,1.35
4.787,1.35
4.788,1.35
4.789,1.35
4.79,1.35
4.791,1.35
4.792,1.35
4.793,1.35
4.794,1.35
4.795,1.35
4.796,1.35
4.797,1.35
4.798,1.35
4.799,1.35
4.8,1.35
4.801,1.35
4.802,1.35
4.803,1.35
4.804,1.35
4.805,1.35
4.806,1.34
4.807,1.35
4.808,1.35
4.809,1.35
4.81,1.35
4.811,1.35
4.812,1.35
4.813,1.35
4.814,1.35
4.815,1.35
4.816,1.34
4.817,1.34
4.818,1.34
4.819,1.35
4.82,1.34
4.821,1.34
4.822,1.33
4.823,1.33
4.824,1.33
4.825,1.33
4.826,1.33
4.827,1.33
4.828,1.33
4.829,1.33
4.83,1.33
4.831,1.33
4.832,1.34
4.833,1.34
4.834,1.35
4.835,1.35
4.836,1.35
4.837,1.35
4.838,1.35
4.839,1.35
4.84,1.35
4.841,1.35
4.842,1.35
4.843,1.35
4.844,1.35
4.845,1.35
4.846,1.35
4.847,1.35
4.848,1.35
4.849,1.35
4.85,1.36
4.851,1.36
4.852,1.36
4.853,1.36
4.854,1.36
4.855,1.36
4.856,1.36
4.857,1.36
4.858,1.36
4.859,1.36
4.86,1.36
4.861,1.36
4.862,1.36
4.863,1.36
4.864,1.36
4.865,1.36
4.866,1.36
4.867,1.37
4.868,1.37
4.869,1.37
4.87,1.37
4.871,1.37
4.872,1.37
4.873,1.37
4.874,1.37
4.875,1.38
4.876,1.38
4.877,1.38
4.878,1.38
4.879,1.38
4.88,1.38
4.881,1.38
4.882,1.38
4.883,1.38
4.884,1.38
4.885,1.38
4.886,1.38
4.887,1.38
4.888,1.39
4.889,1.39
4.89,1.4
4.891,1.4
4.892,1.4
4.893,1.4
4.894,1.4
4.895,1.4
4.896,1.4
4.897,1.4
4.898,1.4
4.899,1.4
4.9,1.4
4.901,1.4
4.902,1.4
4.903,1.4
4.904,1.4
4.905,1.4
4.906,1.4
4.907,1.4
4.908,1.4
4.909,1.4
4.91,1.4
4.911,1.4
4.912,1.4
4.913,1.4
4.914,1.39
4.915,1.39
4.916,1.38
4.917,1.38
4.918,1.38
4.919,1.38
4.92,1.38
4.921,1.38
4.922,1.38
4.923,1.38
4.924,1.38
4.925,1.38
4.926,1.38
4.927,1.38
4.928,1.38
4.929,1.38
4.93,1.38
4.931,1.38
4.932,1.38
4.933,1.37
4.934,1.37
4.935,1.37
4.936,1.37
4.937,1.37
4.938,1.37
4.939,1.37
4.94,1.37
4.941,1.37
4.942,1.37
4.943,1.37
4.944,1.37
4.945,1.37
4.946,1.37
4.947,1.37
4.948,1.37
4.949,1.37
4.95,1.37
4.951,1.37
4.952,1.37
4.953,1.37
4.954,1.37
4.955,1.37
4.956,1.37
4.957,1.37
4.958,1.37
4.959,1.37
4.96,1.37
4.961,1.37
4.962,1.37
4.963,1.37
4.964,1.37
4.965,1.37
4.966,1.37
4.967,1.37
4.968,1.37
4.969,1.37
4.97,1.37
4.971,1.37
4.972,1.37
4.973,1.37
4.974,1.37
4.975,1.37
4.976,1.37
4.977,1.37
4.978,1.37
4.979,1.37
4.98,1.37
4.981,1.37
4.982,1.37
4.983,1.37
4.984,1.37
4.985,1.37
4.986,1.37
4.987,1.37
4.988,1.37
4.989,1.37
4.99,1.37
4.991,1.37
4.992,1.37
4.993,1.37
4.994,1.38
4.995,1.38
4.996,1.38
4.997,1.38
4.998,1.38
4.999,1.38
5.0,1.38
5.001,1.38
5.002,1.38
5.003,1.38
5.004,1.38
5.005,1.38
5.006,1.38
5.007,1.38
5.008,1.38
5.009,1.38
5.01,1.38
5.011,1.38
5.012,1.38
5.013,1.38
5.014,1.38
5.015,1.38
5.016,1.38
5.017,1.38
5.018,1.38
5.019,1.38
5.02,1.38
5.021,1.38
5.022,1.38
5.023,1.38
5.024,1.38
5.025,1.38
5.026,1.38
5.027,1.38
5.028,1.38
5.029,1.38
5.03,1.38
5.031,1.38
5.032,1.38
5.033,1.38
5.034,1.38
5.035,1.38
5.036,1.38
5.037,1.38
5.038,1.38
5.039,1.38
5.04,1.38
5.041,1.38
5.042,1.38
5.043,1.38
5.044,1.38
5.045,1.38
5.046,1.38
5.047,1.38
5.048,1.38
5.049,1.38
5.05,1.38
5.051,1.38
5.052,1.38
5.053,1.38
5.054,1.38
5.055,1.38
5.056,1.38
5.057,1.38
5.058,1.38
5.059,1.38
5.06,1.38
5.061,1.38
5.062,1.38
5.063,1.38
5.064,1.38
5.065,1.38
5.066,1.38
5.067,1.38
5.068,1.38
5.069,1.38
5.07,1.38
5.071,1.38
5.072,1.38
5.073,1.38
5.074,1.38
5.075,1.38
5.076,1.38
5.077,1.38
5.078,1.38
5.079,1.38
5.08,1.38
5.081,1.38
5.082,1.38
5.083,1.38
5.084,1.38
5.085,1.38
5.086,1.38
5.087,1.38
5.088,1.38
5.089,1.38
5.09,1.38
5.091,1.38
5.092,1.38
5.093,1.38
5.094,1.38
5.095,1.38
5.096,1.38
5.097,1.38
5.098,1.38
5.099,1.38
5.1,1.38
5.101,1.38
5.102,1.38
5.103,1.38
5.104,1.38
5.105,1.38
5.106,1.38
5.107,1.38
5.108,1.38
5.109,1.38
5.11,1.38
5.111,1.38
5.112,1.38
5.113,1.38
5.114,1.38
5.115,1.38
5.116,1.38
5.117,1.38
5.118,1.38
5.119,1.38
5.12,1.38
5.121,1.38
5.122,1.38
5.123,1.38
5.124,1.38
5.125,1.38
5.126,1.38
5.127,1.38
5.128,1.38
5.129,1.38
5.13,1.38
5.131,1.38
5.132,1.38
5.133,1.38
5.134,1.38
5.135,1.38
5.136,1.39
5.137,1.39
5.138,1.39
5.139,1.39
5.14,1.39
5.141,1.39
5.142,1.39
5.143,1.39
5.144,1.4
5.145,1.39
5.146,1.39
5.147,1.39
5.148,1.39
5.149,1.39
5.15,1.39
5.151,1.39
5.152,1.39
5.153,1.39
5.154,1.39
5.155,1.39
5.156,1.39
5.157,1.4
5.158,1.4
5.159,1.4
5.16,1.4
5.161,1.4
5.162,1.4
5.163,1.4
5.164,1.4
5.165,1.39
5.166,1.39
5.167,1.39
5.168,1.39
5.169,1.39
5.17,1.39
5.171,1.39
5.172,1.39
5.173,1.39
5.174,1.39
5.175,1.4
5.176,1.4
5.177,1.4
5.178,1.4
5.179,1.39
5.18,1.4
5.181,1.4
5.182,1.4
5.183,1.4
5.184,1.4
5.185,1.39
5.186,1.4
5.187,1.39
5.188,1.39
5.189,1.39
5.19,1.39
5.191,1.39
5.192,1.39
5.193,1.39
5.194,1.39
5.195,1.38
5.196,1.38
5.197,1.38
5.198,1.38
5.199,1.38
5.2,1.38
5.201,1.38
5.202,1.38
5.203,1.38
5.204,1.38
5.205,1.38
5.206,1.38
5.207,1.38
5.208,1.38
5.209,1.38
5.21,1.38
5.211,1.38
5.212,1.38
5.213,1.38
5.214,1.38
5.215,1.38
5.216,1.38
5.217,1.38
5.218,1.38
5.219,1.38
5.22,1.38
5.221,1.38
5.222,1.38
5.223,1.38
5.224,1.38
5.225,1.38
5.226,1.38
5.227,1.38
5.228,1.38
5.229,1.38
5.23,1.38
5.231,1.38
5.232,1.38
5.233,1.38
5.234,1.38
5.235,1.38
5.236,1.38
5.237,1.38
5.238,1.38
5.239,1.38
5.24,1.38
5.241,1.38
5.242,1.38
5.243,1.38
5.244,1.38
5.245,1.38
5.246,1.38
5.247,1.38
5.248,1.38
5.249,1.38
5.25,1.38
5.251,1.38
5.252,1.38
5.253,1.38
5.254,1.38
5.255,1.38
5.256,1.38
5.257,1.38
5.258,1.38
5.259,1.38
5.26,1.38
5.261,1.38
5.262,1.38
5.263,1.38
5.264,1.38
5.265,1.38
5.266,1.38
5.267,1.38
5.268,1.38
5.269,1.38
5.27,1.38
5.271,1.38
5.272,1.38
5.273,1.38
5.274,1.38
5.275,1.38
5.276,1.38
5.277,1.38
5.278,1.38
5.279,1.38
5.28,1.38
5.281,1.38
5.282,1.38
5.283,1.38
5.284,1.38
5.285,1.38
5.286,1.38
5.287,1.38
5.288,1.38
5.289,1.38
5.29,1.38
5.291,1.38
5.292,1.38
5.293,1.38
5.294,1.38
5.295,1.38
5.296,1.38
5.297,1.38
5.298,1.38
5.299,1.38
5.3,1.38
5.301,1.38
5.302,1.38
5.303,1.38
5.304,1.38
5.305,1.38
5.306,1.38
5.307,1.39
5.308,1.39
5.309,1.4
5.31,1.4
5.311,1.4
5.312,1.4
5.313,1.4
5.314,1.4
5.315,1.4
5.316,1.4
5.317,1.4
5.318,1.4
5.319,1.4
5.32,1.4
5.321,1.4
5.322,1.4
5.323,1.4
5.324,1.4
5.325,1.4
5.326,1.4
5.327,1.4
5.328,1.4
5.329,1.4
5.33,1.4
5.331,1.39
5.332,1.4
5.333,1.4
5.334,1.39
5.335,1.39
5.336,1.39
5.337,1.4
5.338,1.4
5.339,1.4
5.34,1.4
5.341,1.4
5.342,1.39
5.343,1.39
5.344,1.39
5.345,1.39
5.346,1.39
5.347,1.38
5.348,1.38
5.349,1.38
5.35,1.38
5.351,1.38
5.352,1.38
5.353,1.38
5.354,1.38
5.355,1.38
5.356,1.38
5.357,1.38
5.358,1.38
5.359,1.38
5.36,1.38
5.361,1.38
5.362,1.38
5.363,1.38
5.364,1.38
5.365,1.38
5.366,1.38
5.367,1.38
5.368,1.38
5.369,1.38
5.37,1.38
5.371,1.38
5.372,1.38
5.373,1.38
5.374,1.38
5.375,1.38
5.376,1.38
5.377,1.38
5.378,1.38
5.379,1.38
5.38,1.38
5.381,1.38
5.382,1.38
5.383,1.38
5.384,1.38
5.385,1.38
5.386,1.38
5.387,1.38
5.388,1.38
5.389,1.38
5.39,1.38
5.391,1.38
5.392,1.38
5.393,1.38
5.394,1.38
5.395,1.38
5.396,1.38
5.397,1.38
5.398,1.38
5.399,1.38
5.4,1.38
5.401,1.37
5.402,1.37
5.403,1.36
5.404,1.36
5.405,1.36
5.406,1.35
5.407,1.35
5.408,1.33
5.409,1.33
5.41,1.33
5.411,1.33
5.412,1.33
5.413,1.33
5.414,1.33
5.415,1.33
5.416,1.33
5.417,1.33
5.418,1.33
5.419,1.35
5.42,1.36
5.421,1.38
5.422,1.4
5.423,1.41
5.424,1.44
5.425,1.46
5.426,1.5
5.427,1.52
5.428,1.57
5.429,1.59
5.43,1.64
5.431,1.68
5.432,1.72
5.433,1.76
5.434,1.8
5.435,1.83
5.436,1.87
5.437,1.9
5.438,1.93
5.439,1.96
5.44,1.97
5.441,1.99
5.442,2.01
5.443,2.01
5.444,2.02
5.445,2.01
5.446,1.99
5.447,1.97
5.448,1.96
5.449,1.92
5.45,1.87
5.451,1.85
5.452,1.8
5.453,1.76
5.454,1.72
5.455,1.68
5.456,1.63
5.457,1.59
5.458,1.55
5.459,1.51
5.46,1.49
5.461,1.46
5.462,1.44
5.463,1.43
5.464,1.41
5.465,1.41
5.466,1.41
5.467,1.41
5.468,1.41
5.469,1.41
5.47,1.41
5.471,1.41
5.472,1.41
5.473,1.41
5.474,1.41
5.475,1.4
5.476,1.4
5.477,1.4
5.478,1.38
5.479,1.38
5.48,1.38
5.481,1.37
5.482,1.37
5.483,1.36
5.484,1.36
5.485,1.36
5.486,1.36
5.487,1.36
5.488,1.36
5.489,1.36
5.49,1.35
5.491,1.35
5.492,1.35
5.493,1.35
5.494,1.35
5.495,1.35
5.496,1.35
5.497,1.35
5.498,1.35
5.499,1.35
5.5,1.35
5.501,1.35
5.502,1.35
5.503,1.35
5.504,1.35
5.505,1.35
5.506,1.35
5.507,1.35
5.508,1.35
5.509,1.35
5.51,1.35
5.511,1.35
5.512,1.35
5.513,1.35
5.514,1.35
5.515,1.35
5.516,1.35
5.517,1.35
5.518,1.35
5.519,1.35
5.52,1.35
5.521,1.35
5.522,1.35
5.523,1.35
5.524,1.35
5.525,1.35
5.526,1.35
5.527,1.35
5.528,1.35
5.529,1.35
5.53,1.35
5.531,1.35
5.532,1.35
5.533,1.35
5.534,1.35
5.535,1.35
5.536,1.35
5.537,1.35
5.538,1.35
5.539,1.35
5.54,1.36
5.541,1.36
5.542,1.36
5.543,1.36
5.544,1.36
5.545,1.36
5.546,1.36
5.547,1.36
5.548,1.36
5.549,1.36
5.55,1.36
5.551,1.36
5.552,1.36
5.553,1.36
5.554,1.36
5.555,1.36
5.556,1.36
5.557,1.36
5.558,1.36
5.559,1.36
5.56,1.36
5.561,1.36
5.562,1.36
5.563,1.36
5.564,1.36
5.565,1.36
5.566,1.36
5.567,1.36
5.568,1.36
5.569,1.36
5.57,1.36
5.571,1.36
5.572,1.36
5.573,1.36
5.574,1.36
5.575,1.36
5.576,1.36
5.577,1.36
5.578,1.36
5.579,1.36
5.58,1.36
5.581,1.36
5.582,1.36
5.583,1.36
5.584,1.36
5.585,1.36
5.586,1.36
5.587,1.36
5.588,1.36
5.589,1.36
5.59,1.36
5.591,1.36
5.592,1.36
5.593,1.36
5.594,1.36
5.595,1.36
5.596,1.36
5.597,1.36
5.598,1.36
5.599,1.36
5.6,1.36
5.601,1.36
5.602,1.36
5.603,1.36
5.604,1.36
5.605,1.36
5.606,1.36
5.607,1.36
5.608,1.36
5.609,1.36
5.61,1.36
5.611,1.36
5.612,1.36
5.613,1.36
5.614,1.36
5.615,1.36
5.616,1.36
5.617,1.36
5.618,1.36
5.619,1.36
5.62,1.36
5.621,1.36
5.622,1.36
5.623,1.36
5.624,1.36
5.625,1.36
5.626,1.36
5.627,1.36
5.628,1.36
5.629,1.36
5.63,1.36
5.631,1.36
5.632,1.36
5.633,1.36
5.634,1.36
5.635,1.36
5.636,1.36
5.637,1.36
5.638,1.36
5.639,1.36
5.64,1.36
5.641,1.36
5.642,1.36
5.643,1.36
5.644,1.36
5.645,1.36
5.646,1.36
5.647,1.36
5.648,1.36
5.649,1.36
5.65,1.36
5.651,1.36
5.652,1.36
5.653,1.37
5.654,1.37
5.655,1.37
5.656,1.37
5.657,1.37
5.658,1.37
5.659,1.37
5.66,1.37
5.661,1.38
5.662,1.38
5.663,1.38
5.664,1.38
5.665,1.38
5.666,1.38
5.667,1.38
5.668,1.38
5.669,1.38
5.67,1.38
5.671,1.38
5.672,1.38
5.673,1.38
5.674,1.38
5.675,1.38
5.676,1.38
5.677,1.38
5.678,1.38
5.679,1.39
5.68,1.39
5.681,1.39
5.682,1.39
5.683,1.4
5.684,1.4
5.685,1.4
5.686,1.4
5.687,1.4
5.688,1.4
5.689,1.4
5.69,1.4
5.691,1.4
5.692,1.4
5.693,1.41
5.694,1.41
5.695,1.41
5.696,1.41
5.697,1.41
5.698,1.41
5.699,1.41
5.7,1.41
5.701,1.41
5.702,1.41
5.703,1.41
5.704,1.41
5.705,1.41
5.706,1.41
5.707,1.41
5.708,1.41
5.709,1.41
5.71,1.41
5.711,1.41
5.712,1.41
5.713,1.4
5.714,1.4
5.715,1.4
5.716,1.4
5.717,1.4
5.718,1.4
5.719,1.4
5.72,1.4
5.721,1.4
5.722,1.4
5.723,1.39
5.724,1.39
5.725,1.38
5.726,1.38
5.727,1.38
5.728,1.38
5.729,1.38
5.73,1.38
5.731,1.38
5.732,1.38
5.733,1.38
5.734,1.38
5.735,1.38
5.736,1.38
5.737,1.38
5.738,1.38
5.739,1.38
5.74,1.38
5.741,1.38
5.742,1.38
5.743,1.38
5.744,1.38
5.745,1.38
5.746,1.38
5.747,1.38
5.748,1.38
5.749,1.38
5.75,1.38
5.751,1.38
5.752,1.38
5.753,1.38
5.754,1.38
5.755,1.38
5.756,1.38
5.757,1.38
5.758,1.38
5.759,1.38
5.76,1.37
5.761,1.37
5.762,1.37
5.763,1.37
5.764,1.37
5.765,1.37
5.766,1.37
5.767,1.37
5.768,1.37
5.769,1.37
5.77,1.37
5.771,1.37
5.772,1.37
5.773,1.37
5.774,1.37
5.775,1.37
5.776,1.37
5.777,1.37
5.778,1.37
5.779,1.37
5.78,1.37
5.781,1.37
5.782,1.37
5.783,1.37
5.784,1.37
5.785,1.37
5.786,1.37
5.787,1.37
5.788,1.37
5.789,1.37
5.79,1.37
5.791,1.37
5.792,1.37
5.793,1.37
5.794,1.37
5.795,1.37
5.796,1.37
5.797,1.37
5.798,1.37
5.799,1.37
5.8,1.37
5.801,1.37
5.802,1.37
5.803,1.37
5.804,1.37
5.805,1.37
5.806,1.37
5.807,1.37
5.808,1.37
5.809,1.37
5.81,1.37
5.811,1.37
5.812,1.37
5.813,1.37
5.814,1.37
5.815,1.37
5.816,1.37
5.817,1.38
5.818,1.38
5.819,1.38
5.82,1.38
5.821,1.38
5.822,1.38
5.823,1.38
5.824,1.38
5.825,1.38
5.826,1.38
5.827,1.38
5.828,1.38
5.829,1.38
5.83,1.38
5.831,1.38
5.832,1.38
5.833,1.38
5.834,1.38
5.835,1.38
5.836,1.38
5.837,1.38
5.838,1.38
5.839,1.38
5.84,1.38
5.841,1.38
5.842,1.38
5.843,1.38
5.844,1.38
5.845,1.38
5.846,1.38
5.847,1.38
5.848,1.38
5.849,1.38
5.85,1.38
5.851,1.38
5.852,1.38
5.853,1.38
5.854,1.38
5.855,1.38
5.856,1.38
5.857,1.38
5.858,1.38
5.859,1.38
5.86,1.38
5.861,1.38
5.862,1.38
5.863,1.38
5.864,1.38
5.865,1.38
5.866,1.38
5.867,1.38
5.868,1.38
5.869,1.38
5.87,1.38
5.871,1.38
5.872,1.38
5.873,1.38
5.874,1.38
5.875,1.38
5.876,1.38
5.877,1.38
5.878,1.38
5.879,1.38
5.88,1.38
5.881,1.38
5.882,1.38
5.883,1.38
5.884,1.38
5.885,1.38
5.886,1.38
5.887,1.38
5.888,1.38
5.889,1.38
5.89,1.38
5.891,1.38
5.892,1.38
5.893,1.38
5.894,1.38
5.895,1.38
5.896,1.38
5.897,1.38
5.898,1.38
5.899,1.38
5.9,1.38
5.901,1.38
5.902,1.38
5.903,1.38
5.904,1.38
5.905,1.38
5.906,1.38
5.907,1.38
5.908,1.38
5.909,1.38
5.91,1.38
5.911,1.38
5.912,1.38
5.913,1.38
5.914,1.38
5.915,1.38
5.916,1.38
5.917,1.38
5.918,1.38
5.919,1.38
5.92,1.38
5.921,1.38
5.922,1.38
5.923,1.38
5.924,1.38
5.925,1.38
5.926,1.38
5.927,1.38
5.928,1.38
5.929,1.38
5.93,1.38
5.931,1.38
5.932,1.38
5.933,1.38
5.934,1.38
5.935,1.38
5.936,1.38
5.937,1.38
5.938,1.38
5.939,1.38
5.94,1.38
5.941,1.38
5.942,1.38
5.943,1.38
5.944,1.38
5.945,1.38
5.946,1.38
5.947,1.38
5.948,1.38
5.949,1.38
5.95,1.38
5.951,1.38
5.952,1.38
5.953,1.38
5.954,1.38
5.955,1.38
5.956,1.38
5.957,1.38
5.958,1.38
5.959,1.38
5.96,1.39
5.961,1.39
5.962,1.38
5.963,1.39
5.964,1.39
5.965,1.39
5.966,1.39
5.967,1.39
5.968,1.39
5.969,1.39
5.97,1.39
5.971,1.39
5.972,1.39
5.973,1.39
5.974,1.39
5.975,1.39
5.976,1.39
5.977,1.39
5.978,1.39
5.979,1.39
5.98,1.39
5.981,1.39
5.982,1.39
5.983,1.39
5.984,1.39
5.985,1.39
5.986,1.39
5.987,1.4
5.988,1.4
5.989,1.4
5.99,1.39
5.991,1.39
5.992,1.4
5.993,1.4
5.994,1.4
5.995,1.4
5.996,1.39
5.997,1.39
5.998,1.39
5.999,1.39
6.0,1.39
6.001,1.39
6.002,1.39
6.003,1.39
6.004,1.39
6.005,1.39
6.006,1.39
6.007,1.39
6.008,1.39
6.009,1.39
6.01,1.39
6.011,1.39
6.012,1.39
6.013,1.39
6.014,1.39
6.015,1.39
6.016,1.39
6.017,1.39
6.018,1.39
6.019,1.4
6.02,1.4
6.021,1.4
6.022,1.4
6.023,1.4
6.024,1.4
6.025,1.4
6.026,1.4
6.027,1.4
6.028,1.4
6.029,1.4
6.03,1.4
6.031,1.4
6.032,1.4
6.033,1.4
6.034,1.4
6.035,1.4
6.036,1.4
6.037,1.4
6.038,1.4
6.039,1.4
6.04,1.4
6.041,1.4
6.042,1.4
6.043,1.4
6.044,1.4
6.045,1.4
6.046,1.4
6.047,1.4
6.048,1.4
6.049,1.4
6.05,1.4
6.051,1.41
6.052,1.41
6.053,1.41
6.054,1.41
6.055,1.41
6.056,1.41
6.057,1.41
6.058,1.41
6.059,1.41
6.06,1.41
6.061,1.4
6.062,1.4
6.063,1.4
6.064,1.4
6.065,1.4
6.066,1.4
6.067,1.4
6.068,1.4
6.069,1.4
6.07,1.4
6.071,1.4
6.072,1.4
6.073,1.4
6.074,1.4
6.075,1.4
6.076,1.4
6.077,1.4
6.078,1.4
6.079,1.4
6.08,1.4
6.081,1.4
6.082,1.4
6.083,1.4
6.084,1.39
6.085,1.39
6.086,1.38
6.087,1.38
6.088,1.38
6.089,1.38
6.09,1.38
6.091,1.38
6.092,1.38
6.093,1.38
6.094,1.38
6.095,1.38
6.096,1.38
6.097,1.39
6.098,1.38
6.099,1.39
6.1,1.39
6.101,1.39
6.102,1.39
6.103,1.39
6.104,1.39
6.105,1.39
6.106,1.39
6.107,1.39
6.108,1.39
6.109,1.39
6.11,1.39
6.111,1.39
6.112,1.39
6.113,1.39
6.114,1.39
6.115,1.39
6.116,1.4
6.117,1.39
6.118,1.39
6.119,1.4
6.12,1.39
6.121,1.39
6.122,1.39
6.123,1.39
6.124,1.39
6.125,1.39
6.126,1.39
6.127,1.39
6.128,1.39
6.129,1.39
6.13,1.39
6.131,1.38
6.132,1.38
6.133,1.38
6.134,1.38
6.135,1.38
6.136,1.38
6.137,1.38
6.138,1.37
6.139,1.37
6.14,1.36
6.141,1.36
6.142,1.36
6.143,1.35
6.144,1.35
6.145,1.33
6.146,1.33
6.147,1.33
6.148,1.33
6.149,1.32
6.15,1.32
6.151,1.32
6.152,1.32
6.153,1.32
6.154,1.33
6.155,1.33
6.156,1.33
6.157,1.35
6.158,1.36
6.159,1.38
6.16,1.4
6.161,1.42
6.162,1.44
6.163,1.46
6.164,1.5
6.165,1.52
6.166,1.56
6.167,1.59
6.168,1.64
6.169,1.68
6.17,1.71
6.171,1.74
6.172,1.78
6.173,1.82
6.174,1.85
6.175,1.87
6.176,1.9
6.177,1.92
6.178,1.95
6.179,1.95
6.18,1.96
6.181,1.96
6.182,1.95
6.183,1.95
6.184,1.92
6.185,1.9
6.186,1.87
6.187,1.84
6.188,1.8
6.189,1.77
6.19,1.73
6.191,1.68
6.192,1.64
6.193,1.59
6.194,1.56
6.195,1.52
6.196,1.5
6.197,1.46
6.198,1.44
6.199,1.43
6.2,1.41
6.201,1.41
6.202,1.4
6.203,1.4
6.204,1.4
6.205,1.4
6.206,1.4
6.207,1.4
6.208,1.4
6.209,1.41
6.21,1.4
6.211,1.4
6.212,1.4
6.213,1.4
6.214,1.39
6.215,1.38
6.216,1.38
6.217,1.38
6.218,1.37
6.219,1.37
6.22,1.36
6.221,1.36
6.222,1.36
6.223,1.36
6.224,1.36
6.225,1.36
6.226,1.36
6.227,1.35
6.228,1.35
6.229,1.35
6.23,1.35
6.231,1.36
6.232,1.36
6.233,1.36
6.234,1.36
6.235,1.36
6.236,1.36
6.237,1.36
6.238,1.36
6.239,1.36
6.24,1.36
6.241,1.36
6.242,1.36
6.243,1.35
6.244,1.35
6.245,1.35
6.246,1.35
6.247,1.35
6.248,1.36
6.249,1.36
6.25,1.36
6.251,1.36
6.252,1.36
6.253,1.36
6.254,1.36
6.255,1.36
6.256,1.36
6.257,1.36
6.258,1.36
6.259,1.36
6.26,1.36
6.261,1.36
6.262,1.36
6.263,1.36
6.264,1.36
6.265,1.36
6.266,1.36
6.267,1.36
6.268,1.36
6.269,1.36
6.27,1.36
6.271,1.36
6.272,1.36
6.273,1.36
6.274,1.36
6.275,1.36
6.276,1.36
6.277,1.36
6.278,1.36
6.279,1.36
6.28,1.36
6.281,1.36
6.282,1.36
6.283,1.36
6.284,1.36
6.285,1.36
6.286,1.36
6.287,1.36
6.288,1.36
6.289,1.36
6.29,1.36
6.291,1.36
6.292,1.36
6.293,1.36
6.294,1.36
6.295,1.36
6.296,1.36
6.297,1.36
6.298,1.36
6.299,1.36
6.3,1.36
6.301,1.36
6.302,1.36
6.303,1.36
6.304,1.36
6.305,1.36
6.306,1.36
6.307,1.36
6.308,1.36
6.309,1.36
6.31,1.36
6.311,1.36
6.312,1.36
6.313,1.36
6.314,1.36
6.315,1.36
6.316,1.36
6.317,1.36
6.318,1.36
6.319,1.36
6.32,1.36
6.321,1.36
6.322,1.36
6.323,1.36
6.324,1.36
6.325,1.36
6.326,1.36
6.327,1.36
6.328,1.36
6.329,1.36
6.33,1.37
6.331,1.37
6.332,1.37
6.333,1.37
6.334,1.37
6.335,1.37
6.336,1.37
6.337,1.37
6.338,1.37
6.339,1.37
6.34,1.37
6.341,1.37
6.342,1.37
6.343,1.37
6.344,1.37
6.345,1.37
6.346,1.37
6.347,1.37
6.348,1.37
6.349,1.37
6.35,1.37
6.351,1.37
6.352,1.37
6.353,1.37
6.354,1.37
6.355,1.37
6.356,1.37
6.357,1.37
6.358,1.37
6.359,1.37
6.36,1.37
6.361,1.37
6.362,1.37
6.363,1.37
6.364,1.37
6.365,1.37
6.366,1.37
6.367,1.37
6.368,1.37
6.369,1.37
6.37,1.37
6.371,1.37
6.372,1.37
6.373,1.37
6.374,1.37
6.375,1.37
6.376,1.37
6.377,1.37
6.378,1.37
6.379,1.37
6.38,1.37
6.381,1.37
6.382,1.37
6.383,1.37
6.384,1.37
6.385,1.37
6.386,1.37
6.387,1.38
6.388,1.38
6.389,1.38
6.39,1.38
6.391,1.38
6.392,1.38
6.393,1.38
6.394,1.38
6.395,1.38
6.396,1.38
6.397,1.38
6.398,1.38
6.399,1.38
6.4,1.38
6.401,1.38
6.402,1.38
6.403,1.38
6.404,1.38
6.405,1.38
6.406,1.38
6.407,1.38
6.408,1.38
6.409,1.38
6.41,1.39
6.411,1.39
6.412,1.39
6.413,1.4
6.414,1.4
6.415,1.4
6.416,1.4
6.417,1.4
6.418,1.4
6.419,1.4
6.42,1.4
6.421,1.4
6.422,1.4
6.423,1.41
6.424,1.41
6.425,1.41
6.426,1.41
6.427,1.41
6.428,1.41
6.429,1.41
6.43,1.41
6.431,1.41
6.432,1.41
6.433,1.41
6.434,1.41
6.435,1.41
6.436,1.41
6.437,1.41
6.438,1.41
6.439,1.41
6.44,1.4
6.441,1.4
6.442,1.4
6.443,1.4
6.444,1.4
6.445,1.4
6.446,1.4
6.447,1.39
6.448,1.39
6.449,1.38
6.45,1.38
6.451,1.38
6.452,1.38
6.453,1.38
6.454,1.38
6.455,1.38
6.456,1.38
6.457,1.38
6.458,1.38
6.459,1.38
6.46,1.38
6.461,1.38
6.462,1.38
6.463,1.38
6.464,1.38
6.465,1.37
6.466,1.37
6.467,1.37
6.468,1.37
6.469,1.37
6.47,1.37
6.471,1.37
6.472,1.37
6.473,1.37
6.474,1.37
6.475,1.37
6.476,1.37
6.477,1.36
6.478,1.37
6.479,1.37
6.48,1.37
6.481,1.36
6.482,1.37
6.483,1.36
6.484,1.36
6.485,1.36
6.486,1.36
6.487,1.36
6.488,1.36
6.489,1.36
6.49,1.36
6.491,1.36
6.492,1.36
6.493,1.36
6.494,1.36
6.495,1.36
6.496,1.36
6.497,1.36
6.498,1.36
6.499,1.36
6.5,1.36
6.501,1.36
6.502,1.36
6.503,1.36
6.504,1.36
6.505,1.36
6.506,1.36
6.507,1.36
6.508,1.36
6.509,1.37
6.51,1.37
6.511,1.37
6.512,1.37
6.513,1.37
6.514,1.37
6.515,1.37
6.516,1.37
6.517,1.37
6.518,1.37
6.519,1.37
6.52,1.37
6.521,1.37
6.522,1.37
6.523,1.37
6.524,1.37
6.525,1.37
6.526,1.37
6.527,1.37
6.528,1.37
6.529,1.37
6.53,1.37
6.531,1.37
6.532,1.37
6.533,1.37
6.534,1.37
6.535,1.37
6.536,1.37
6.537,1.37
6.538,1.37
6.539,1.37
6.54,1.37
6.541,1.37
6.542,1.37
6.543,1.37
6.544,1.37
6.545,1.37
6.546,1.37
6.547,1.37
6.548,1.37
6.549,1.37
6.55,1.37
6.551,1.37
6.552,1.37
6.553,1.37
6.554,1.37
6.555,1.37
6.556,1.37
6.557,1.37
6.558,1.37
6.559,1.38
6.56,1.38
6.561,1.38
6.562,1.38
6.563,1.38
6.564,1.38
6.565,1.38
6.566,1.38
6.567,1.38
6.568,1.38
6.569,1.38
6.57,1.38
6.571,1.38
6.572,1.38
6.573,1.38
6.574,1.38
6.575,1.38
6.576,1.38
6.577,1.38
6.578,1.38
6.579,1.38
6.58,1.38
6.581,1.38
6.582,1.38
6.583,1.38
6.584,1.38
6.585,1.38
6.586,1.38
6.587,1.38
6.588,1.38
6.589,1.38
6.59,1.38
6.591,1.38
6.592,1.38
6.593,1.38
6.594,1.38
6.595,1.38
6.596,1.38
6.597,1.38
6.598,1.38
6.599,1.38
6.6,1.38
6.601,1.38
6.602,1.38
6.603,1.38
6.604,1.38
6.605,1.38
6.606,1.38
6.607,1.38
6.608,1.38
6.609,1.38
6.61,1.38
6.611,1.38
6.612,1.38
6.613,1.38
6.614,1.38
6.615,1.38
6.616,1.38
6.617,1.38
6.618,1.38
6.619,1.38
6.62,1.38
6.621,1.38
6.622,1.38
6.623,1.38
6.624,1.38
6.625,1.38
6.626,1.38
6.627,1.38
6.628,1.38
6.629,1.38
6.63,1.38
6.631,1.38
6.632,1.38
6.633,1.38
6.634,1.38
6.635,1.38
6.636,1.38
6.637,1.38
6.638,1.38
6.639,1.38
6.64,1.38
6.641,1.38
6.642,1.38
6.643,1.38
6.644,1.38
6.645,1.38
6.646,1.38
6.647,1.38
6.648,1.38
6.649,1.38
6.65,1.38
6.651,1.38
6.652,1.38
6.653,1.38
6.654,1.38
6.655,1.38
6.656,1.38
6.657,1.38
6.658,1.38
6.659,1.38
6.66,1.38
6.661,1.38
6.662,1.38
6.663,1.38
6.664,1.37
6.665,1.37
6.666,1.37
6.667,1.37
6.668,1.37
6.669,1.37
6.67,1.37
6.671,1.37
6.672,1.37
6.673,1.37
6.674,1.37
6.675,1.37
6.676,1.37
6.677,1.37
6.678,1.37
6.679,1.37
6.68,1.37
6.681,1.37
6.682,1.37
6.683,1.37
6.684,1.37
6.685,1.37
6.686,1.37
6.687,1.37
6.688,1.37
6.689,1.37
6.69,1.37
6.691,1.37
6.692,1.37
6.693,1.37
6.694,1.37
6.695,1.37
6.696,1.37
6.697,1.37
6.698,1.37
6.699,1.37
6.7,1.37
6.701,1.37
6.702,1.37
6.703,1.37
6.704,1.37
6.705,1.37
6.706,1.37
6.707,1.37
6.708,1.37
6.709,1.37
6.71,1.37
6.711,1.37
6.712,1.37
6.713,1.37
6.714,1.37
6.715,1.37
6.716,1.37
6.717,1.37
6.718,1.37
6.719,1.37
6.72,1.37
6.721,1.37
6.722,1.37
6.723,1.37
6.724,1.37
6.725,1.37
6.726,1.37
6.727,1.37
6.728,1.37
6.729,1.37
6.73,1.37
6.731,1.37
6.732,1.37
6.733,1.37
6.734,1.37
6.735,1.37
6.736,1.37
6.737,1.37
6.738,1.37
6.739,1.37
6.74,1.37
6.741,1.37
6.742,1.37
6.743,1.37
6.744,1.37
6.745,1.37
6.746,1.37
6.747,1.37
6.748,1.37
6.749,1.37
6.75,1.37
6.751,1.37
6.752,1.37
6.753,1.37
6.754,1.37
6.755,1.37
6.756,1.37
6.757,1.37
6.758,1.37
6.759,1.37
6.76,1.37
6.761,1.37
6.762,1.37
6.763,1.37
6.764,1.37
6.765,1.37
6.766,1.37
6.767,1.37
6.768,1.37
6.769,1.37
6.77,1.37
6.771,1.37
6.772,1.37
6.773,1.37
6.774,1.38
6.775,1.38
6.776,1.38
6.777,1.38
6.778,1.38
6.779,1.38
6.78,1.38
6.781,1.38
6.782,1.38
6.783,1.38
6.784,1.38
6.785,1.38
6.786,1.38
6.787,1.38
6.788,1.38
6.789,1.38
6.79,1.38
6.791,1.38
6.792,1.38
6.793,1.38
6.794,1.38
6.795,1.38
6.796,1.38
6.797,1.38
6.798,1.38
6.799,1.38
6.8,1.38
6.801,1.38
6.802,1.38
6.803,1.38
6.804,1.38
6.805,1.38
6.806,1.38
6.807,1.38
6.808,1.38
6.809,1.38
6.81,1.38
6.811,1.38
6.812,1.38
6.813,1.38
6.814,1.38
6.815,1.38
6.816,1.38
6.817,1.38
6.818,1.38
6.819,1.38
6.82,1.38
6.821,1.38
6.822,1.38
6.823,1.38
6.824,1.38
6.825,1.38
6.826,1.38
6.827,1.38
6.828,1.38
6.829,1.38
6.83,1.38
6.831,1.38
6.832,1.38
6.833,1.38
6.834,1.38
6.835,1.38
6.836,1.38
6.837,1.38
6.838,1.38
6.839,1.38
6.84,1.38
6.841,1.38
6.842,1.38
6.843,1.38
6.844,1.38
6.845,1.38
6.846,1.38
6.847,1.38
6.848,1.38
6.849,1.38
6.85,1.38
6.851,1.38
6.852,1.38
6.853,1.38
6.854,1.38
6.855,1.38
6.856,1.38
6.857,1.38
6.858,1.38
6.859,1.38
6.86,1.38
6.861,1.38
6.862,1.38
6.863,1.38
6.864,1.38
6.865,1.38
6.866,1.38
6.867,1.38
6.868,1.38
6.869,1.38
6.87,1.38
6.871,1.37
6.872,1.36
6.873,1.36
6.874,1.36
6.875,1.35
6.876,1.35
6.877,1.35
6.878,1.33
6.879,1.33
6.88,1.33
6.881,1.33
6.882,1.33
6.883,1.33
6.884,1.33
6.885,1.33
6.886,1.33
6.887,1.33
6.888,1.33
6.889,1.35
6.89,1.36
6.891,1.38
6.892,1.4
6.893,1.42
6.894,1.44
6.895,1.47
6.896,1.5
6.897,1.54
6.898,1.57
6.899,1.6
6.9,1.64
6.901,1.69
6.902,1.72
6.903,1.76
6.904,1.8
6.905,1.83
6.906,1.87
6.907,1.9
6.908,1.92
6.909,1.95
6.91,1.97
6.911,1.98
6.912,1.99
6.913,1.99
6.914,1.99
6.915,1.99
6.916,1.97
6.917,1.96
6.918,1.92
6.919,1.9
6.92,1.87
6.921,1.83
6.922,1.78
6.923,1.74
6.924,1.69
6.925,1.65
6.926,1.61
6.927,1.57
6.928,1.54
6.929,1.5
6.93,1.48
6.931,1.45
6.932,1.43
6.933,1.42
6.934,1.41
6.935,1.41
6.936,1.4
6.937,1.4
6.938,1.4
6.939,1.4
6.94,1.4
6.941,1.4
6.942,1.4
6.943,1.4
6.944,1.4
6.945,1.39
6.946,1.38
6.947,1.38
6.948,1.38
6.949,1.37
6.95,1.36
6.951,1.36
6.952,1.36
6.953,1.36
6.954,1.35
6.955,1.35
6.956,1.35
6.957,1.35
6.958,1.34
6.959,1.33
6.96,1.33
6.961,1.33
6.962,1.33
6.963,1.33
6.964,1.33
6.965,1.33
6.966,1.33
6.967,1.34
6.968,1.34
6.969,1.35
6.97,1.35
6.971,1.35
6.972,1.35
6.973,1.35
6.974,1.35
6.975,1.35
6.976,1.34
6.977,1.34
6.978,1.33
6.979,1.33
6.98,1.33
6.981,1.33
6.982,1.33
6.983,1.33
6.984,1.33
6.985,1.33
6.986,1.33
6.987,1.33
6.988,1.33
6.989,1.34
6.99,1.34
6.991,1.34
6.992,1.35
6.993,1.34
6.994,1.35
6.995,1.35
6.996,1.35
6.997,1.35
6.998,1.35
6.999,1.35
7.0,1.35
7.001,1.35
7.002,1.35
7.003,1.35
7.004,1.35
7.005,1.35
7.006,1.35
7.007,1.35
7.008,1.35
7.009,1.35
7.01,1.35
7.011,1.35
7.012,1.35
7.013,1.35
7.014,1.35
7.015,1.35
7.016,1.35
7.017,1.35
7.018,1.35
7.019,1.35
7.02,1.35
7.021,1.35
7.022,1.35
7.023,1.35
7.024,1.35
7.025,1.35
7.026,1.35
7.027,1.35
7.028,1.35
7.029,1.35
7.03,1.35
7.031,1.35
7.032,1.35
7.033,1.35
7.034,1.35
7.035,1.35
7.036,1.35
7.037,1.35
7.038,1.35
7.039,1.35
7.04,1.35
7.041,1.35
7.042,1.35
7.043,1.35
7.044,1.35
7.045,1.35
7.046,1.35
7.047,1.35
7.048,1.35
7.049,1.35
7.05,1.35
7.051,1.35
7.052,1.35
7.053,1.35
7.054,1.35
7.055,1.35
7.056,1.35
7.057,1.35
7.058,1.35
7.059,1.35
7.06,1.35
7.061,1.35
7.062,1.35
7.063,1.35
7.064,1.35
7.065,1.35
7.066,1.35
7.067,1.35
7.068,1.35
7.069,1.35
7.07,1.35
7.071,1.35
7.072,1.35
7.073,1.35
7.074,1.35
7.075,1.35
7.076,1.35
7.077,1.35
7.078,1.35
7.079,1.35
7.08,1.35
7.081,1.35
7.082,1.35
7.083,1.35
7.084,1.35
7.085,1.35
7.086,1.35
7.087,1.35
7.088,1.35
7.089,1.35
7.09,1.35
7.091,1.35
7.092,1.35
7.093,1.35
7.094,1.35
7.095,1.35
7.096,1.35
7.097,1.35
7.098,1.35
7.099,1.35
7.1,1.36
7.101,1.36
7.102,1.36
7.103,1.36
7.104,1.36
7.105,1.36
7.106,1.36
7.107,1.36
7.108,1.36
7.109,1.36
7.11,1.36
7.111,1.36
7.112,1.36
7.113,1.36
7.114,1.36
7.115,1.36
7.116,1.36
7.117,1.36
7.118,1.36
7.119,1.36
7.12,1.36
7.121,1.36
7.122,1.36
7.123,1.36
7.124,1.36
7.125,1.36
7.126,1.36
7.127,1.36
7.128,1.36
7.129,1.36
7.13,1.36
7.131,1.36
7.132,1.36
7.133,1.36
7.134,1.37
7.135,1.37
7.136,1.37
7.137,1.37
7.138,1.37
7.139,1.37
7.14,1.37
7.141,1.37
7.142,1.37
7.143,1.37
7.144,1.37
7.145,1.37
7.146,1.37
7.147,1.38
7.148,1.38
7.149,1.38
7.15,1.38
7.151,1.38
7.152,1.38
7.153,1.38
7.154,1.38
7.155,1.38
7.156,1.38
7.157,1.38
7.158,1.38
7.159,1.38
7.16,1.38
7.161,1.38
7.162,1.38
7.163,1.38
7.164,1.39
7.165,1.39
7.166,1.39
7.167,1.4
7.168,1.4
7.169,1.4
7.17,1.4
7.171,1.4
7.172,1.4
7.173,1.4
7.174,1.4
7.175,1.4
7.176,1.4
7.177,1.4
7.178,1.4
7.179,1.4
7.18,1.4
7.181,1.4
7.182,1.39
7.183,1.39
7.184,1.38
7.185,1.38
7.186,1.38
7.187,1.38
7.188,1.38
7.189,1.38
7.19,1.38
7.191,1.38
7.192,1.38
7.193,1.38
7.194,1.38
7.195,1.38
7.196,1.38
7.197,1.38
7.198,1.38
7.199,1.38
7.2,1.38
7.201,1.38
7.202,1.38
7.203,1.38
7.204,1.38
7.205,1.38
7.206,1.38
7.207,1.38
7.208,1.38
7.209,1.38
7.21,1.37
7.211,1.37
7.212,1.37
7.213,1.37
7.214,1.37
7.215,1.37
7.216,1.37
7.217,1.37
7.218,1.37
7.219,1.37
7.22,1.37
7.221,1.37
7.222,1.37
7.223,1.37
7.224,1.37
7.225,1.37
7.226,1.37
7.227,1.37
7.228,1.37
7.229,1.37
7.23,1.37
7.231,1.37
7.232,1.37
7.233,1.37
7.234,1.37
7.235,1.37
7.236,1.37
7.237,1.37
7.238,1.37
7.239,1.37
7.24,1.37
7.241,1.37
7.242,1.37
7.243,1.37
7.244,1.37
7.245,1.37
7.246,1.37
7.247,1.37
7.248,1.37
7.249,1.37
7.25,1.37
7.251,1.37
7.252,1.37
7.253,1.37
7.254,1.37
7.255,1.37
7.256,1.37
7.257,1.37
7.258,1.37
7.259,1.37
7.26,1.37
7.261,1.37
7.262,1.37
7.263,1.37
7.264,1.37
7.265,1.37
7.266,1.37
7.267,1.37
7.268,1.37
7.269,1.36
7.27,1.36
7.271,1.36
7.272,1.36
7.273,1.36
7.274,1.36
7.275,1.36
7.276,1.36
7.277,1.36
7.278,1.36
7.279,1.36
7.28,1.36
7.281,1.36
7.282,1.36
7.283,1.37
7.284,1.37
7.285,1.37
7.286,1.37
7.287,1.37
7.288,1.37
7.289,1.37
7.29,1.37
7.291,1.37
7.292,1.37
7.293,1.37
7.294,1.37
7.295,1.37
7.296,1.37
7.297,1.37
7.298,1.37
7.299,1.37
7.3,1.37
7.301,1.37
7.302,1.37
7.303,1.37
7.304,1.37
7.305,1.37
7.306,1.37
7.307,1.37
7.308,1.37
7.309,1.37
7.31,1.37
7.311,1.37
7.312,1.37
7.313,1.37
7.314,1.37
7.315,1.37
7.316,1.37
7.317,1.37
7.318,1.37
7.319,1.37
7.32,1.37
7.321,1.37
7.322,1.37
7.323,1.37
7.324,1.37
7.325,1.37
7.326,1.37
7.327,1.37
7.328,1.37
7.329,1.37
7.33,1.37
7.331,1.37
7.332,1.38
7.333,1.38
7.334,1.38
7.335,1.38
7.336,1.38
7.337,1.38
7.338,1.38
7.339,1.38
7.34,1.38
7.341,1.38
7.342,1.38
7.343,1.38
7.344,1.38
7.345,1.38
7.346,1.38
7.347,1.38
7.348,1.38
7.349,1.38
7.35,1.38
7.351,1.38
7.352,1.38
7.353,1.38
7.354,1.38
7.355,1.38
7.356,1.38
7.357,1.38
7.358,1.38
7.359,1.38
7.36,1.38
7.361,1.38
7.362,1.38
7.363,1.38
7.364,1.38
7.365,1.38
7.366,1.38
7.367,1.38
7.368,1.38
7.369,1.38
7.37,1.38
7.371,1.38
7.372,1.38
7.373,1.38
7.374,1.38
7.375,1.38
7.376,1.38
7.377,1.38
7.378,1.38
7.379,1.38
7.38,1.38
7.381,1.38
7.382,1.38
7.383,1.38
7.384,1.38
7.385,1.38
7.386,1.38
7.387,1.38
7.388,1.38
7.389,1.38
7.39,1.38
7.391,1.38
7.392,1.38
7.393,1.38
7.394,1.38
7.395,1.38
7.396,1.38
7.397,1.38
7.398,1.38
7.399,1.38
7.4,1.38
7.401,1.38
7.402,1.38
7.403,1.38
7.404,1.38
7.405,1.38
7.406,1.38
7.407,1.38
7.408,1.38
7.409,1.38
7.41,1.38
7.411,1.38
7.412,1.38
7.413,1.38
7.414,1.38
7.415,1.38
7.416,1.38
7.417,1.38
7.418,1.38
7.419,1.38
7.42,1.38
7.421,1.38
7.422,1.38
7.423,1.38
7.424,1.38
7.425,1.38
7.426,1.38
7.427,1.38
7.428,1.38
7.429,1.38
7.43,1.38
7.431,1.38
7.432,1.38
7.433,1.38
7.434,1.38
7.435,1.38
7.436,1.38
7.437,1.38
7.438,1.38
7.439,1.38
7.44,1.38
7.441,1.38
7.442,1.38
7.443,1.38
7.444,1.38
7.445,1.38
7.446,1.38
7.447,1.38
7.448,1.38
7.449,1.38
7.45,1.38
7.451,1.38
7.452,1.38
7.453,1.38
7.454,1.38
7.455,1.38
7.456,1.38
7.457,1.38
7.458,1.38
7.459,1.38
7.46,1.38
7.461,1.38
7.462,1.38
7.463,1.38
7.464,1.38
7.465,1.38
7.466,1.38
7.467,1.38
7.468,1.38
7.469,1.38
7.47,1.38
7.471,1.38
7.472,1.38
7.473,1.38
7.474,1.38
7.475,1.38
7.476,1.38
7.477,1.38
7.478,1.38
7.479,1.38
7.48,1.38
7.481,1.38
7.482,1.38
7.483,1.38
7.484,1.38
7.485,1.38
7.486,1.38
7.487,1.38
7.488,1.38
7.489,1.38
7.49,1.38
7.491,1.38
7.492,1.38
7.493,1.38
7.494,1.38
7.495,1.38
7.496,1.38
7.497,1.38
7.498,1.38
7.499,1.38
7.5,1.38
7.501,1.38
7.502,1.38
7.503,1.38
7.504,1.38
7.505,1.38
7.506,1.38
7.507,1.38
7.508,1.38
7.509,1.38
7.51,1.38
7.511,1.38
7.512,1.38
7.513,1.38
7.514,1.38
7.515,1.39
7.516,1.39
7.517,1.39
7.518,1.4
7.519,1.4
7.52,1.4
7.521,1.4
7.522,1.39
7.523,1.39
7.524,1.39
7.525,1.39
7.526,1.38
7.527,1.38
7.528,1.38
7.529,1.38
7.53,1.38
7.531,1.38
7.532,1.38
7.533,1.38
7.534,1.38
7.535,1.38
7.536,1.38
7.537,1.38
7.538,1.38
7.539,1.38
7.54,1.38
7.541,1.38
7.542,1.38
7.543,1.38
7.544,1.38
7.545,1.38
7.546,1.38
7.547,1.38
7.548,1.38
7.549,1.38
7.55,1.38
7.551,1.38
7.552,1.38
7.553,1.38
7.554,1.38
7.555,1.38
7.556,1.38
7.557,1.38
7.558,1.38
7.559,1.38
7.56,1.38
7.561,1.38
7.562,1.38
7.563,1.38
7.564,1.38
7.565,1.38
7.566,1.38
7.567,1.38
7.568,1.38
7.569,1.38
7.57,1.38
7.571,1.38
7.572,1.38
7.573,1.38
7.574,1.38
7.575,1.38
7.576,1.38
7.577,1.38
7.578,1.38
7.579,1.38
7.58,1.38
7.581,1.38
7.582,1.38
7.583,1.38
7.584,1.38
7.585,1.38
7.586,1.38
7.587,1.38
7.588,1.38
7.589,1.38
7.59,1.38
7.591,1.38
7.592,1.38
7.593,1.38
7.594,1.38
7.595,1.38
7.596,1.38
7.597,1.38
7.598,1.38
7.599,1.38
7.6,1.38
7.601,1.38
7.602,1.38
7.603,1.37
7.604,1.37
7.605,1.36
7.606,1.36
7.607,1.36
7.608,1.35
7.609,1.35
7.61,1.35
7.611,1.33
7.612,1.33
7.613,1.33
7.614,1.33
7.615,1.33
7.616,1.32
7.617,1.32
7.618,1.32
7.619,1.32
7.62,1.32
7.621,1.33
7.622,1.33
7.623,1.33
7.624,1.35
7.625,1.36
7.626,1.38
7.627,1.41
7.628,1.43
7.629,1.45
7.63,1.49
7.631,1.52
7.632,1.56
7.633,1.59
7.634,1.64
7.635,1.68
7.636,1.71
7.637,1.76
7.638,1.79
7.639,1.83
7.64,1.87
7.641,1.9
7.642,1.93
7.643,1.96
7.644,1.97
7.645,1.99
7.646,2.01
7.647,2.02
7.648,2.02
7.649,2.01
7.65,1.99
7.651,1.98
7.652,1.96
7.653,1.92
7.654,1.89
7.655,1.85
7.656,1.8
7.657,1.77
7.658,1.72
7.659,1.68
7.66,1.63
7.661,1.59
7.662,1.55
7.663,1.51
7.664,1.48
7.665,1.45
7.666,1.43
7.667,1.42
7.668,1.41
7.669,1.41
7.67,1.4
7.671,1.4
7.672,1.4
7.673,1.4
7.674,1.4
7.675,1.4
7.676,1.4
7.677,1.4
7.678,1.4
7.679,1.39
7.68,1.38
7.681,1.38
7.682,1.38
7.683,1.37
7.684,1.37
7.685,1.36
7.686,1.36
7.687,1.36
7.688,1.36
7.689,1.35
7.69,1.35
7.691,1.35
7.692,1.35
7.693,1.35
7.694,1.35
7.695,1.35
7.696,1.35
7.697,1.35
7.698,1.35
7.699,1.35
7.7,1.35
7.701,1.34
7.702,1.33
7.703,1.33
7.704,1.33
7.705,1.33
7.706,1.33
7.707,1.33
7.708,1.33
7.709,1.33
7.71,1.33
7.711,1.33
7.712,1.33
7.713,1.33
7.714,1.33
7.715,1.33
7.716,1.34
7.717,1.34
7.718,1.34
7.719,1.35
7.72,1.35
7.721,1.35
7.722,1.35
7.723,1.35
7.724,1.35
7.725,1.35
7.726,1.35
7.727,1.35
7.728,1.35
7.729,1.35
7.73,1.35
7.731,1.35
7.732,1.35
7.733,1.35
7.734,1.35
7.735,1.35
7.736,1.35
7.737,1.35
7.738,1.35
7.739,1.35
7.74,1.35
7.741,1.35
7.742,1.35
7.743,1.35
7.744,1.35
7.745,1.35
7.746,1.35
7.747,1.35
7.748,1.35
7.749,1.35
7.75,1.35
7.751,1.35
7.752,1.35
7.753,1.35
7.754,1.35
7.755,1.35
7.756,1.35
7.757,1.35
7.758,1.35
7.759,1.35
7.76,1.35
7.761,1.35
7.762,1.35
7.763,1.35
7.764,1.35
7.765,1.35
7.766,1.35
7.767,1.35
7.768,1.35
7.769,1.35
7.77,1.35
7.771,1.35
7.772,1.36
7.773,1.36
7.774,1.36
7.775,1.36
7.776,1.36
7.777,1.36
7.778,1.36
7.779,1.36
7.78,1.36
7.781,1.36
7.782,1.36
7.783,1.36
7.784,1.36
7.785,1.36
7.786,1.36
7.787,1.36
7.788,1.36
7.789,1.36
7.79,1.36
7.791,1.36
7.792,1.36
7.793,1.36
7.794,1.36
7.795,1.36
7.796,1.36
7.797,1.36
7.798,1.36
7.799,1.36
7.8,1.36
7.801,1.36
7.802,1.36
7.803,1.36
7.804,1.36
7.805,1.36
7.806,1.36
7.807,1.36
7.808,1.36
7.809,1.36
7.81,1.36
7.811,1.36
7.812,1.36
7.813,1.36
7.814,1.36
7.815,1.36
7.816,1.36
7.817,1.36
7.818,1.36
7.819,1.36
7.82,1.36
7.821,1.36
7.822,1.36
7.823,1.36
7.824,1.36
7.825,1.35
7.826,1.36
7.827,1.36
7.828,1.35
7.829,1.36
7.83,1.35
7.831,1.36
7.832,1.36
7.833,1.36
7.834,1.35
7.835,1.35
7.836,1.35
7.837,1.36
7.838,1.35
7.839,1.36
7.84,1.36
7.841,1.36
7.842,1.36
7.843,1.36
7.844,1.36
7.845,1.36
7.846,1.36
7.847,1.36
7.848,1.36
7.849,1.36
7.85,1.36
7.851,1.36
7.852,1.36
7.853,1.36
7.854,1.36
7.855,1.36
7.856,1.36
7.857,1.36
7.858,1.36
7.859,1.36
7.86,1.36
7.861,1.36
7.862,1.36
7.863,1.36
7.864,1.36
7.865,1.37
7.866,1.37
7.867,1.37
7.868,1.37
7.869,1.37
7.87,1.37
7.871,1.37
7.872,1.38
7.873,1.38
7.874,1.38
7.875,1.38
7.876,1.38
7.877,1.38
7.878,1.38
7.879,1.38
7.88,1.38
7.881,1.38
7.882,1.38
7.883,1.38
7.884,1.38
7.885,1.38
7.886,1.38
7.887,1.39
7.888,1.39
7.889,1.39
7.89,1.4
7.891,1.4
7.892,1.4
7.893,1.4
7.894,1.4
7.895,1.4
7.896,1.4
7.897,1.4
7.898,1.4
7.899,1.4
7.9,1.4
7.901,1.41
7.902,1.41
7.903,1.41
7.904,1.41
7.905,1.41
7.906,1.41
7.907,1.4
7.908,1.4
7.909,1.4
7.91,1.4
7.911,1.4
7.912,1.4
7.913,1.4
7.914,1.4
7.915,1.4
7.916,1.4
7.917,1.4
7.918,1.4
7.919,1.4
7.92,1.39
7.921,1.39
7.922,1.38
7.923,1.38
7.924,1.38
7.925,1.38
7.926,1.38
7.927,1.38
7.928,1.38
7.929,1.38
7.93,1.38
7.931,1.38
7.932,1.38
7.933,1.38
7.934,1.38
7.935,1.38
7.936,1.38
7.937,1.38
7.938,1.38
7.939,1.38
7.94,1.37
7.941,1.37
7.942,1.37
7.943,1.37
7.944,1.37
7.945,1.37
7.946,1.37
7.947,1.37
7.948,1.37
7.949,1.37
7.95,1.37
7.951,1.37
7.952,1.37
7.953,1.36
7.954,1.37
7.955,1.37
7.956,1.37
7.957,1.37
7.958,1.37
7.959,1.37
7.96,1.37
7.961,1.37
7.962,1.37
7.963,1.37
7.964,1.37
7.965,1.37
7.966,1.37
7.967,1.37
7.968,1.37
7.969,1.37
7.97,1.37
7.971,1.37
7.972,1.37
7.973,1.37
7.974,1.37
7.975,1.37
7.976,1.37
7.977,1.37
7.978,1.37
7.979,1.37
7.98,1.37
7.981,1.37
7.982,1.37
7.983,1.37
7.984,1.37
7.985,1.37
7.986,1.37
7.987,1.37
7.988,1.37
7.989,1.36
7.99,1.37
7.991,1.36
7.992,1.36
7.993,1.36
7.994,1.36
7.995,1.36
7.996,1.36
7.997,1.36
7.998,1.36
7.999,1.36
8.0,1.36
8.001,1.36
8.002,1.36
8.003,1.36
8.004,1.36
8.005,1.37
8.006,1.37
8.007,1.37
8.008,1.37
8.009,1.37
8.01,1.37
8.011,1.37
8.012,1.37
8.013,1.37
8.014,1.37
8.015,1.37
8.016,1.38
8.017,1.37
8.018,1.38
8.019,1.38
8.02,1.38
8.021,1.38
8.022,1.38
8.023,1.38
8.024,1.38
8.025,1.38
8.026,1.38
8.027,1.38
8.028,1.38
8.029,1.38
8.03,1.38
8.031,1.38
8.032,1.38
8.033,1.38
8.034,1.38
8.035,1.38
8.036,1.38
8.037,1.38
8.038,1.38
8.039,1.38
8.04,1.38
8.041,1.38
8.042,1.38
8.043,1.38
8.044,1.38
8.045,1.38
8.046,1.38
8.047,1.38
8.048,1.38
8.049,1.38
8.05,1.38
8.051,1.38
8.052,1.38
8.053,1.38
8.054,1.38
8.055,1.38
8.056,1.38
8.057,1.38
8.058,1.38
8.059,1.38
8.06,1.38
8.061,1.38
8.062,1.38
8.063,1.38
8.064,1.38
8.065,1.38
8.066,1.38
8.067,1.38
8.068,1.38
8.069,1.38
8.07,1.38
8.071,1.38
8.072,1.38
8.073,1.38
8.074,1.38
8.075,1.38
8.076,1.38
8.077,1.38
8.078,1.38
8.079,1.38
8.08,1.38
8.081,1.38
8.082,1.38
8.083,1.38
8.084,1.38
8.085,1.38
8.086,1.38
8.087,1.38
8.088,1.38
8.089,1.38
8.09,1.38
8.091,1.38
8.092,1.38
8.093,1.38
8.094,1.38
8.095,1.38
8.096,1.38
8.097,1.38
8.098,1.38
8.099,1.38
8.1,1.38
8.101,1.38
8.102,1.38
8.103,1.38
8.104,1.38
8.105,1.38
8.106,1.38
8.107,1.38
8.108,1.38
8.109,1.38
8.11,1.38
8.111,1.38
8.112,1.38
8.113,1.38
8.114,1.38
8.115,1.38
8.116,1.38
8.117,1.38
8.118,1.38
8.119,1.38
8.12,1.38
8.121,1.38
8.122,1.38
8.123,1.38
8.124,1.38
8.125,1.38
8.126,1.38
8.127,1.38
8.128,1.38
8.129,1.38
8.13,1.38
8.131,1.38
8.132,1.38
8.133,1.38
8.134,1.38
8.135,1.38
8.136,1.38
8.137,1.38
8.138,1.38
8.139,1.38
8.14,1.38
8.141,1.38
8.142,1.38
8.143,1.38
8.144,1.39
8.145,1.38
8.146,1.39
8.147,1.39
8.148,1.39
8.149,1.4
8.15,1.4
8.151,1.4
8.152,1.4
8.153,1.4
8.154,1.4
8.155,1.39
8.156,1.4
8.157,1.4
8.158,1.39
8.159,1.39
8.16,1.39
8.161,1.39
8.162,1.39
8.163,1.39
8.164,1.39
8.165,1.39
8.166,1.39
8.167,1.38
8.168,1.39
8.169,1.39
8.17,1.39
8.171,1.39
8.172,1.39
8.173,1.38
8.174,1.39
8.175,1.39
8.176,1.39
8.177,1.39
8.178,1.39
8.179,1.38
8.18,1.38
8.181,1.38
8.182,1.38
8.183,1.38
8.184,1.38
8.185,1.38
8.186,1.38
8.187,1.38
8.188,1.38
8.189,1.38
8.19,1.38
8.191,1.38
8.192,1.38
8.193,1.38
8.194,1.38
8.195,1.38
8.196,1.38
8.197,1.38
8.198,1.38
8.199,1.38
8.2,1.38
8.201,1.38
8.202,1.38
8.203,1.38
8.204,1.38
8.205,1.38
8.206,1.38
8.207,1.38
8.208,1.38
8.209,1.38
8.21,1.38
8.211,1.38
8.212,1.38
8.213,1.38
8.214,1.38
8.215,1.38
8.216,1.38
8.217,1.38
8.218,1.38
8.219,1.38
8.22,1.38
8.221,1.38
8.222,1.38
8.223,1.38
8.224,1.38
8.225,1.38
8.226,1.38
8.227,1.38
8.228,1.38
8.229,1.38
8.23,1.38
8.231,1.38
8.232,1.38
8.233,1.38
8.234,1.38
8.235,1.38
8.236,1.38
8.237,1.38
8.238,1.38
8.239,1.38
8.24,1.38
8.241,1.38
8.242,1.38
8.243,1.38
8.244,1.38
8.245,1.38
8.246,1.38
8.247,1.38
8.248,1.38
8.249,1.38
8.25,1.38
8.251,1.38
8.252,1.38
8.253,1.38
8.254,1.38
8.255,1.38
8.256,1.38
8.257,1.38
8.258,1.38
8.259,1.38
8.26,1.38
8.261,1.39
8.262,1.39
8.263,1.4
8.264,1.4
8.265,1.4
8.266,1.4
8.267,1.4
8.268,1.4
8.269,1.4
8.27,1.4
8.271,1.4
8.272,1.4
8.273,1.4
8.274,1.4
8.275,1.4
8.276,1.39
8.277,1.39
8.278,1.39
8.279,1.39
8.28,1.38
8.281,1.39
8.282,1.38
8.283,1.38
8.284,1.38
8.285,1.38
8.286,1.38
8.287,1.38
8.288,1.38
8.289,1.39
8.29,1.38
8.291,1.38
8.292,1.38
8.293,1.38
8.294,1.38
8.295,1.38
8.296,1.38
8.297,1.38
8.298,1.38
8.299,1.38
8.3,1.38
8.301,1.38
8.302,1.38
8.303,1.38
8.304,1.38
8.305,1.38
8.306,1.38
8.307,1.38
8.308,1.38
8.309,1.38
8.31,1.38
8.311,1.38
8.312,1.38
8.313,1.38
8.314,1.38
8.315,1.38
8.316,1.38
8.317,1.38
8.318,1.38
8.319,1.38
8.32,1.38
8.321,1.38
8.322,1.38
8.323,1.38
8.324,1.38
8.325,1.38
8.326,1.38
8.327,1.38
8.328,1.38
8.329,1.38
8.33,1.39
8.331,1.39
8.332,1.38
8.333,1.39
8.334,1.39
8.335,1.39
8.336,1.39
8.337,1.38
8.338,1.39
8.339,1.38
8.34,1.38
8.341,1.38
8.342,1.38
8.343,1.38
8.344,1.38
8.345,1.38
8.346,1.38
8.347,1.38
8.348,1.38
8.349,1.38
8.35,1.38
8.351,1.38
8.352,1.38
8.353,1.37
8.354,1.36
8.355,1.36
8.356,1.36
8.357,1.35
8.358,1.35
8.359,1.35
8.36,1.33
8.361,1.33
8.362,1.33
8.363,1.33
8.364,1.33
8.365,1.32
8.366,1.33
8.367,1.33
8.368,1.33
8.369,1.33
8.37,1.35
8.371,1.36
8.372,1.37
8.373,1.38
8.374,1.41
8.375,1.43
8.376,1.45
8.377,1.48
8.378,1.5
8.379,1.54
8.38,1.57
8.381,1.6
8.382,1.65
8.383,1.69
8.384,1.72
8.385,1.76
8.386,1.8
8.387,1.83
8.388,1.87
8.389,1.9
8.39,1.92
8.391,1.95
8.392,1.96
8.393,1.97
8.394,1.97
8.395,1.97
8.396,1.97
8.397,1.96
8.398,1.95
8.399,1.92
8.4,1.87
8.401,1.85
8.402,1.82
8.403,1.78
8.404,1.73
8.405,1.69
8.406,1.65
8.407,1.6
8.408,1.57
8.409,1.54
8.41,1.5
8.411,1.47
8.412,1.45
8.413,1.43
8.414,1.42
8.415,1.41
8.416,1.41
8.417,1.4
8.418,1.4
8.419,1.4
8.42,1.41
8.421,1.41
8.422,1.41
8.423,1.41
8.424,1.41
8.425,1.41
8.426,1.4
8.427,1.4
8.428,1.4
8.429,1.38
8.43,1.38
8.431,1.38
8.432,1.38
8.433,1.37
8.434,1.36
8.435,1.36
8.436,1.36
8.437,1.36
8.438,1.36
8.439,1.35
8.44,1.35
8.441,1.35
8.442,1.35
8.443,1.35
8.444,1.35
8.445,1.35
8.446,1.35
8.447,1.35
8.448,1.35
8.449,1.35
8.45,1.35
8.451,1.35
8.452,1.35
8.453,1.35
8.454,1.35
8.455,1.35
8.456,1.35
8.457,1.35
8.458,1.35
8.459,1.35
8.46,1.35
8.461,1.35
8.462,1.35
8.463,1.35
8.464,1.35
8.465,1.35
8.466,1.35
8.467,1.35
8.468,1.35
8.469,1.35
8.47,1.35
8.471,1.35
8.472,1.35
8.473,1.35
8.474,1.35
8.475,1.35
8.476,1.35
8.477,1.35
8.478,1.35
8.479,1.35
8.48,1.35
8.481,1.35
8.482,1.35
8.483,1.35
8.484,1.36
8.485,1.36
8.486,1.35
8.487,1.36
8.488,1.36
8.489,1.36
8.49,1.36
8.491,1.36
8.492,1.36
8.493,1.36
8.494,1.36
8.495,1.36
8.496,1.36
8.497,1.36
8.498,1.36
8.499,1.36
8.5,1.36
8.501,1.36
8.502,1.36
8.503,1.36
8.504,1.36
8.505,1.36
8.506,1.36
8.507,1.36
8.508,1.36
8.509,1.36
8.51,1.36
8.511,1.36
8.512,1.36
8.513,1.36
8.514,1.36
8.515,1.36
8.516,1.36
8.517,1.36
8.518,1.36
8.519,1.36
8.52,1.36
8.521,1.36
8.522,1.36
8.523,1.36
8.524,1.36
8.525,1.36
8.526,1.36
8.527,1.36
8.528,1.36
8.529,1.36
8.53,1.36
8.531,1.36
8.532,1.36
8.533,1.36
8.534,1.36
8.535,1.36
8.536,1.36
8.537,1.36
8.538,1.36
8.539,1.36
8.54,1.36
8.541,1.36
8.542,1.36
8.543,1.36
8.544,1.36
8.545,1.36
8.546,1.36
8.547,1.36
8.548,1.36
8.549,1.36
8.55,1.36
8.551,1.36
8.552,1.36
8.553,1.36
8.554,1.36
8.555,1.36
8.556,1.36
8.557,1.36
8.558,1.36
8.559,1.36
8.56,1.36
8.561,1.36
8.562,1.36
8.563,1.36
8.564,1.36
8.565,1.36
8.566,1.36
8.567,1.36
8.568,1.36
8.569,1.36
8.57,1.36
8.571,1.36
8.572,1.36
8.573,1.36
8.574,1.36
8.575,1.36
8.576,1.36
8.577,1.36
8.578,1.36
8.579,1.36
8.58,1.36
8.581,1.36
8.582,1.36
8.583,1.36
8.584,1.36
8.585,1.36
8.586,1.36
8.587,1.36
8.588,1.36
8.589,1.36
8.59,1.36
8.591,1.36
8.592,1.36
8.593,1.36
8.594,1.36
8.595,1.37
8.596,1.37
8.597,1.37
8.598,1.37
8.599,1.37
8.6,1.37
8.601,1.37
8.602,1.37
8.603,1.37
8.604,1.37
8.605,1.37
8.606,1.37
8.607,1.38
8.608,1.38
8.609,1.38
8.61,1.38
8.611,1.38
8.612,1.38
8.613,1.38
8.614,1.38
8.615,1.38
8.616,1.38
8.617,1.38
8.618,1.38
8.619,1.38
8.62,1.38
8.621,1.38
8.622,1.38
8.623,1.38
8.624,1.38
8.625,1.38
8.626,1.38
8.627,1.38
8.628,1.38
8.629,1.39
8.63,1.39
8.631,1.39
8.632,1.39
8.633,1.39
8.634,1.39
8.635,1.39
8.636,1.39
8.637,1.39
8.638,1.4
8.639,1.4
8.64,1.4
8.641,1.4
8.642,1.4
8.643,1.4
8.644,1.4
8.645,1.4
8.646,1.4
8.647,1.4
8.648,1.4
8.649,1.4
8.65,1.4
8.651,1.4
8.652,1.4
8.653,1.4
8.654,1.4
8.655,1.4
8.656,1.4
8.657,1.4
8.658,1.39
8.659,1.39
8.66,1.38
8.661,1.38
8.662,1.38
8.663,1.38
8.664,1.38
8.665,1.38
8.666,1.38
8.667,1.38
8.668,1.38
8.669,1.38
8.67,1.38
8.671,1.38
8.672,1.37
8.673,1.37
8.674,1.37
8.675,1.37
8.676,1.37
8.677,1.37
8.678,1.37
8.679,1.37
8.68,1.37
8.681,1.37
8.682,1.37
8.683,1.37
8.684,1.37
8.685,1.37
8.686,1.36
8.687,1.36
8.688,1.36
8.689,1.36
8.69,1.36
8.691,1.36
8.692,1.36
8.693,1.36
8.694,1.36
8.695,1.36
8.696,1.36
8.697,1.36
8.698,1.36
8.699,1.36
8.7,1.36
8.701,1.36
8.702,1.36
8.703,1.36
8.704,1.36
8.705,1.36
8.706,1.36
8.707,1.36
8.708,1.36
8.709,1.36
8.71,1.36
8.711,1.36
8.712,1.36
8.713,1.36
8.714,1.36
8.715,1.36
8.716,1.36
8.717,1.36
8.718,1.36
8.719,1.36
8.72,1.36
8.721,1.36
8.722,1.36
8.723,1.36
8.724,1.36
8.725,1.36
8.726,1.36
8.727,1.36
8.728,1.36
8.729,1.36
8.73,1.36
8.731,1.36
8.732,1.36
8.733,1.36
8.734,1.36
8.735,1.36
8.736,1.36
8.737,1.36
8.738,1.36
8.739,1.36
8.74,1.36
8.741,1.36
8.742,1.36
8.743,1.36
8.744,1.36
8.745,1.36
8.746,1.36
8.747,1.36
8.748,1.36
8.749,1.36
8.75,1.36
8.751,1.36
8.752,1.36
8.753,1.36
8.754,1.36
8.755,1.36
8.756,1.36
8.757,1.36
8.758,1.36
8.759,1.36
8.76,1.36
8.761,1.36
8.762,1.36
8.763,1.36
8.764,1.36
8.765,1.36
8.766,1.36
8.767,1.36
8.768,1.36
8.769,1.36
8.77,1.36
8.771,1.36
8.772,1.36
8.773,1.36
8.774,1.36
8.775,1.36
8.776,1.36
8.777,1.36
8.778,1.36
8.779,1.36
8.78,1.36
8.781,1.36
8.782,1.36
8.783,1.36
8.784,1.36
8.785,1.36
8.786,1.36
8.787,1.37
8.788,1.37
8.789,1.37
8.79,1.37
8.791,1.37
8.792,1.37
8.793,1.37
8.794,1.37
8.795,1.37
8.796,1.37
8.797,1.37
8.798,1.37
8.799,1.36
8.8,1.36
8.801,1.36
8.802,1.36
8.803,1.36
8.804,1.36
8.805,1.36
8.806,1.36
8.807,1.37
8.808,1.37
8.809,1.37
8.81,1.37
8.811,1.37
8.812,1.37
8.813,1.37
8.814,1.37
8.815,1.37
8.816,1.37
8.817,1.37
8.818,1.37
8.819,1.37
8.82,1.37
8.821,1.37
8.822,1.37
8.823,1.37
8.824,1.37
8.825,1.37
8.826,1.37
8.827,1.37
8.828,1.37
8.829,1.37
8.83,1.37
8.831,1.37
8.832,1.37
8.833,1.37
8.834,1.37
8.835,1.37
8.836,1.37
8.837,1.37
8.838,1.37
8.839,1.37
8.84,1.37
8.841,1.37
8.842,1.37
8.843,1.37
8.844,1.37
8.845,1.37
8.846,1.37
8.847,1.37
8.848,1.37
8.849,1.37
8.85,1.37
8.851,1.37
8.852,1.37
8.853,1.37
8.854,1.37
8.855,1.37
8.856,1.37
8.857,1.37
8.858,1.37
8.859,1.37
8.86,1.37
8.861,1.37
8.862,1.37
8.863,1.37
8.864,1.37
8.865,1.37
8.866,1.37
8.867,1.37
8.868,1.37
8.869,1.37
8.87,1.37
8.871,1.37
8.872,1.37
8.873,1.37
8.874,1.37
8.875,1.37
8.876,1.37
8.877,1.37
8.878,1.37
8.879,1.37
8.88,1.37
8.881,1.37
8.882,1.37
8.883,1.37
8.884,1.37
8.885,1.37
8.886,1.37
8.887,1.38
8.888,1.37
8.889,1.38
8.89,1.38
8.891,1.38
8.892,1.38
8.893,1.38
8.894,1.38
8.895,1.38
8.896,1.38
8.897,1.38
8.898,1.38
8.899,1.38
8.9,1.38
8.901,1.38
8.902,1.38
8.903,1.38
8.904,1.38
8.905,1.38
8.906,1.38
8.907,1.38
8.908,1.38
8.909,1.38
8.91,1.38
8.911,1.38
8.912,1.38
8.913,1.38
8.914,1.38
8.915,1.38
8.916,1.38
8.917,1.38
8.918,1.38
8.919,1.38
8.92,1.38
8.921,1.38
8.922,1.38
8.923,1.38
8.924,1.38
8.925,1.38
8.926,1.38
8.927,1.38
8.928,1.38
8.929,1.38
8.93,1.38
8.931,1.37
8.932,1.37
8.933,1.37
8.934,1.37
8.935,1.37
8.936,1.37
8.937,1.37
8.938,1.37
8.939,1.37
8.94,1.37
8.941,1.37
8.942,1.37
8.943,1.37
8.944,1.37
8.945,1.37
8.946,1.37
8.947,1.37
8.948,1.37
8.949,1.37
8.95,1.37
8.951,1.37
8.952,1.37
8.953,1.37
8.954,1.37
8.955,1.37
8.956,1.37
8.957,1.37
8.958,1.37
8.959,1.37
8.96,1.37
8.961,1.37
8.962,1.37
8.963,1.37
8.964,1.37
8.965,1.37
8.966,1.37
8.967,1.37
8.968,1.37
8.969,1.37
8.97,1.37
8.971,1.37
8.972,1.37
8.973,1.37
8.974,1.37
8.975,1.37
8.976,1.37
8.977,1.37
8.978,1.37
8.979,1.37
8.98,1.37
8.981,1.37
8.982,1.37
8.983,1.37
8.984,1.37
8.985,1.37
8.986,1.37
8.987,1.37
8.988,1.37
8.989,1.37
8.99,1.37
8.991,1.37
8.992,1.37
8.993,1.37
8.994,1.37
8.995,1.37
8.996,1.38
8.997,1.37
8.998,1.37
8.999,1.38
9.0,1.38
9.001,1.38
9.002,1.38
9.003,1.38
9.004,1.38
9.005,1.38
9.006,1.38
9.007,1.38
9.008,1.38
9.009,1.38
9.01,1.38
9.011,1.38
9.012,1.38
9.013,1.38
9.014,1.38
9.015,1.38
9.016,1.38
9.017,1.38
9.018,1.38
9.019,1.38
9.02,1.38
9.021,1.38
9.022,1.38
9.023,1.38
9.024,1.38
9.025,1.38
9.026,1.38
9.027,1.38
9.028,1.38
9.029,1.38
9.03,1.38
9.031,1.38
9.032,1.38
9.033,1.38
9.034,1.38
9.035,1.38
9.036,1.38
9.037,1.38
9.038,1.38
9.039,1.38
9.04,1.38
9.041,1.38
9.042,1.38
9.043,1.38
9.044,1.38
9.045,1.38
9.046,1.38
9.047,1.38
9.048,1.38
9.049,1.38
9.05,1.38
9.051,1.38
9.052,1.38
9.053,1.38
9.054,1.38
9.055,1.38
9.056,1.38
9.057,1.38
9.058,1.38
9.059,1.38
9.06,1.38
9.061,1.38
9.062,1.38
9.063,1.38
9.064,1.38
9.065,1.38
9.066,1.38
9.067,1.38
9.068,1.38
9.069,1.38
9.07,1.38
9.071,1.38
9.072,1.38
9.073,1.38
9.074,1.38
9.075,1.38
9.076,1.38
9.077,1.38
9.078,1.38
9.079,1.38
9.08,1.38
9.081,1.38
9.082,1.38
9.083,1.38
9.084,1.38
9.085,1.38
9.086,1.38
9.087,1.38
9.088,1.38
9.089,1.38
9.09,1.38
9.091,1.38
9.092,1.38
9.093,1.38
9.094,1.38
9.095,1.38
9.096,1.38
9.097,1.38
9.098,1.38
9.099,1.38
9.1,1.38
9.101,1.38
9.102,1.38
9.103,1.38
9.104,1.38
9.105,1.38
9.106,1.38
9.107,1.38
9.108,1.38
9.109,1.38
9.11,1.38
9.111,1.38
9.112,1.38
9.113,1.38
9.114,1.37
9.115,1.37
9.116,1.37
9.117,1.36
9.118,1.36
9.119,1.36
9.12,1.36
9.121,1.35
9.122,1.35
9.123,1.33
9.124,1.33
9.125,1.33
9.126,1.33
9.127,1.32
9.128,1.32
9.129,1.32
9.13,1.32
9.131,1.32
9.132,1.32
9.133,1.32
9.134,1.33
9.135,1.33
9.136,1.35
9.137,1.36
9.138,1.37
9.139,1.39
9.14,1.41
9.141,1.43
9.142,1.46
9.143,1.5
9.144,1.52
9.145,1.56
9.146,1.59
9.147,1.64
9.148,1.68
9.149,1.71
9.15,1.76
9.151,1.79
9.152,1.83
9.153,1.85
9.154,1.87
9.155,1.92
9.156,1.93
9.157,1.96
9.158,1.97
9.159,1.97
9.16,1.97
9.161,1.97
9.162,1.97
9.163,1.95
9.164,1.93
9.165,1.9
9.166,1.87
9.167,1.84
9.168,1.8
9.169,1.76
9.17,1.71
9.171,1.68
9.172,1.63
9.173,1.59
9.174,1.55
9.175,1.52
9.176,1.49
9.177,1.46
9.178,1.44
9.179,1.43
9.18,1.41
9.181,1.41
9.182,1.4
9.183,1.4
9.184,1.4
9.185,1.4
9.186,1.4
9.187,1.4
9.188,1.4
9.189,1.4
9.19,1.4
9.191,1.39
9.192,1.38
9.193,1.38
9.194,1.38
9.195,1.38
9.196,1.37
9.197,1.36
9.198,1.36
9.199,1.36
9.2,1.36
9.201,1.35
9.202,1.35
9.203,1.35
9.204,1.35
9.205,1.35
9.206,1.33
9.207,1.33
9.208,1.33
9.209,1.33
9.21,1.33
9.211,1.33
9.212,1.33
9.213,1.33
9.214,1.33
9.215,1.33
9.216,1.33
9.217,1.33
9.218,1.33
9.219,1.33
9.22,1.33
9.221,1.33
9.222,1.33
9.223,1.33
9.224,1.33
9.225,1.33
9.226,1.33
9.227,1.33
9.228,1.33
9.229,1.33
9.23,1.33
9.231,1.33
9.232,1.33
9.233,1.33
9.234,1.33
9.235,1.33
9.236,1.33
9.237,1.33
9.238,1.33
9.239,1.33
9.24,1.33
9.241,1.33
9.242,1.33
9.243,1.33
9.244,1.33
9.245,1.33
9.246,1.33
9.247,1.34
9.248,1.34
9.249,1.35
9.25,1.34
9.251,1.35
9.252,1.35
9.253,1.35
9.254,1.35
9.255,1.35
9.256,1.35
9.257,1.35
9.258,1.35
9.259,1.35
9.26,1.35
9.261,1.35
9.262,1.35
9.263,1.35
9.264,1.35
9.265,1.35
9.266,1.35
9.267,1.35
9.268,1.35
9.269,1.35
9.27,1.35
9.271,1.35
9.272,1.35
9.273,1.35
9.274,1.35
9.275,1.35
9.276,1.35
9.277,1.35
9.278,1.35
9.279,1.35
9.28,1.35
9.281,1.35
9.282,1.35
9.283,1.35
9.284,1.35
9.285,1.35
9.286,1.35
9.287,1.35
9.288,1.35
9.289,1.35
9.29,1.35
9.291,1.35
9.292,1.35
9.293,1.35
9.294,1.35
9.295,1.35
9.296,1.35
9.297,1.35
9.298,1.35
9.299,1.35
9.3,1.35
9.301,1.35
9.302,1.35
9.303,1.35
9.304,1.35
9.305,1.35
9.306,1.35
9.307,1.35
9.308,1.35
9.309,1.35
9.31,1.35
9.311,1.35
9.312,1.35
9.313,1.35
9.314,1.35
9.315,1.35
9.316,1.35
9.317,1.35
9.318,1.35
9.319,1.35
9.32,1.35
9.321,1.35
9.322,1.35
9.323,1.35
9.324,1.35
9.325,1.35
9.326,1.35
9.327,1.35
9.328,1.35
9.329,1.35
9.33,1.35
9.331,1.35
9.332,1.35
9.333,1.35
9.334,1.35
9.335,1.35
9.336,1.35
9.337,1.35
9.338,1.35
9.339,1.35
9.34,1.35
9.341,1.35
9.342,1.35
9.343,1.35
9.344,1.35
9.345,1.35
9.346,1.35
9.347,1.35
9.348,1.35
9.349,1.35
9.35,1.35
9.351,1.35
9.352,1.35
9.353,1.35
9.354,1.35
9.355,1.35
9.356,1.35
9.357,1.36
9.358,1.36
9.359,1.36
9.36,1.36
9.361,1.36
9.362,1.36
9.363,1.36
9.364,1.36
9.365,1.36
9.366,1.36
9.367,1.36
9.368,1.36
9.369,1.36
9.37,1.36
9.371,1.36
9.372,1.36
9.373,1.36
9.374,1.36
9.375,1.36
9.376,1.36
9.377,1.36
9.378,1.36
9.379,1.37
9.38,1.37
9.381,1.37
9.382,1.37
9.383,1.37
9.384,1.37
9.385,1.37
9.386,1.37
9.387,1.37
9.388,1.37
9.389,1.38
9.39,1.38
9.391,1.38
9.392,1.38
9.393,1.38
9.394,1.38
9.395,1.38
9.396,1.38
9.397,1.38
9.398,1.38
9.399,1.38
9.4,1.38
9.401,1.38
9.402,1.38
9.403,1.38
9.404,1.38
9.405,1.38
9.406,1.38
9.407,1.39
9.408,1.39
9.409,1.39
9.41,1.4
9.411,1.4
9.412,1.4
9.413,1.4
9.414,1.4
9.415,1.4
9.416,1.4
9.417,1.4
9.418,1.4
9.419,1.4
9.42,1.4
9.421,1.4
9.422,1.4
9.423,1.39
9.424,1.39
9.425,1.38
9.426,1.38
9.427,1.38
9.428,1.38
9.429,1.38
9.43,1.38
9.431,1.38
9.432,1.38
9.433,1.38
9.434,1.38
9.435,1.38
9.436,1.38
9.437,1.38
9.438,1.38
9.439,1.38
9.44,1.38
9.441,1.38
9.442,1.38
9.443,1.38
9.444,1.38
9.445,1.38
9.446,1.38
9.447,1.38
9.448,1.38
9.449,1.38
9.45,1.37
9.451,1.37
9.452,1.37
9.453,1.37
9.454,1.37
9.455,1.37
9.456,1.37
9.457,1.37
9.458,1.37
9.459,1.37
9.46,1.37
9.461,1.37
9.462,1.37
9.463,1.37
9.464,1.36
9.465,1.36
9.466,1.36
9.467,1.36
9.468,1.36
9.469,1.36
9.47,1.36
9.471,1.36
9.472,1.36
9.473,1.36
9.474,1.36
9.475,1.36
9.476,1.36
9.477,1.36
9.478,1.36
9.479,1.36
9.48,1.36
9.481,1.36
9.482,1.36
9.483,1.36
9.484,1.36
9.485,1.36
9.486,1.36
9.487,1.36
9.488,1.36
9.489,1.36
9.49,1.36
9.491,1.36
9.492,1.36
9.493,1.36
9.494,1.36
9.495,1.36
9.496,1.36
9.497,1.36
9.498,1.36
9.499,1.36
9.5,1.36
9.501,1.36
9.502,1.36
9.503,1.36
9.504,1.36
9.505,1.36
9.506,1.36
9.507,1.36
9.508,1.36
9.509,1.36
9.51,1.36
9.511,1.36
9.512,1.36
9.513,1.36
9.514,1.36
9.515,1.36
9.516,1.36
9.517,1.36
9.518,1.36
9.519,1.36
9.52,1.36
9.521,1.36
9.522,1.36
9.523,1.36
9.524,1.36
9.525,1.36
9.526,1.36
9.527,1.36
9.528,1.36
9.529,1.36
9.53,1.36
9.531,1.36
9.532,1.36
9.533,1.36
9.534,1.36
9.535,1.37
9.536,1.37
9.537,1.37
9.538,1.37
9.539,1.37
9.54,1.37
9.541,1.37
9.542,1.37
9.543,1.37
9.544,1.37
9.545,1.37
9.546,1.37
9.547,1.37
9.548,1.37
9.549,1.37
9.55,1.37
9.551,1.37
9.552,1.37
9.553,1.37
9.554,1.37
9.555,1.37
9.556,1.37
9.557,1.37
9.558,1.37
9.559,1.37
9.56,1.37
9.561,1.37
9.562,1.37
9.563,1.37
9.564,1.37
9.565,1.37
9.566,1.38
9.567,1.38
9.568,1.38
9.569,1.38
9.57,1.38
9.571,1.38
9.572,1.38
9.573,1.38
9.574,1.38
9.575,1.38
9.576,1.38
9.577,1.38
9.578,1.38
9.579,1.38
9.58,1.38
9.581,1.38
9.582,1.38
9.583,1.38
9.584,1.38
9.585,1.38
9.586,1.38
9.587,1.38
9.588,1.38
9.589,1.38
9.59,1.38
9.591,1.38
9.592,1.38
9.593,1.38
9.594,1.38
9.595,1.38
9.596,1.38
9.597,1.38
9.598,1.38
9.599,1.38
9.6,1.38
9.601,1.38
9.602,1.38
9.603,1.38
9.604,1.38
9.605,1.38
9.606,1.38
9.607,1.38
9.608,1.38
9.609,1.38
9.61,1.38
9.611,1.38
9.612,1.38
9.613,1.38
9.614,1.38
9.615,1.38
9.616,1.38
9.617,1.38
9.618,1.38
9.619,1.38
9.62,1.38
9.621,1.38
9.622,1.38
9.623,1.38
9.624,1.38
9.625,1.38
9.626,1.38
9.627,1.38
9.628,1.38
9.629,1.38
9.63,1.38
9.631,1.38
9.632,1.38
9.633,1.38
9.634,1.38
9.635,1.38
9.636,1.38
9.637,1.38
9.638,1.38
9.639,1.38
9.64,1.38
9.641,1.38
9.642,1.38
9.643,1.38
9.644,1.38
9.645,1.38
9.646,1.38
9.647,1.38
9.648,1.38
9.649,1.38
9.65,1.38
9.651,1.38
9.652,1.38
9.653,1.38
9.654,1.38
9.655,1.38
9.656,1.38
9.657,1.38
9.658,1.38
9.659,1.38
9.66,1.38
9.661,1.38
9.662,1.38
9.663,1.38
9.664,1.38
9.665,1.38
9.666,1.38
9.667,1.38
9.668,1.38
9.669,1.38
9.67,1.38
9.671,1.38
9.672,1.38
9.673,1.38
9.674,1.38
9.675,1.38
9.676,1.38
9.677,1.38
9.678,1.38
9.679,1.38
9.68,1.38
9.681,1.38
9.682,1.38
9.683,1.38
9.684,1.38
9.685,1.38
9.686,1.38
9.687,1.38
9.688,1.38
9.689,1.38
9.69,1.38
9.691,1.38
9.692,1.38
9.693,1.38
9.694,1.38
9.695,1.38
9.696,1.38
9.697,1.38
9.698,1.38
9.699,1.38
9.7,1.38
9.701,1.38
9.702,1.38
9.703,1.38
9.704,1.38
9.705,1.38
9.706,1.38
9.707,1.38
9.708,1.38
9.709,1.38
9.71,1.38
9.711,1.38
9.712,1.38
9.713,1.38
9.714,1.38
9.715,1.38
9.716,1.38
9.717,1.38
9.718,1.38
9.719,1.38
9.72,1.38
9.721,1.38
9.722,1.38
9.723,1.38
9.724,1.38
9.725,1.38
9.726,1.38
9.727,1.38
9.728,1.38
9.729,1.38
9.73,1.38
9.731,1.38
9.732,1.38
9.733,1.38
9.734,1.38
9.735,1.38
9.736,1.38
9.737,1.38
9.738,1.38
9.739,1.38
9.74,1.38
9.741,1.38
9.742,1.38
9.743,1.38
9.744,1.38
9.745,1.38
9.746,1.38
9.747,1.38
9.748,1.38
9.749,1.38
9.75,1.38
9.751,1.38
9.752,1.38
9.753,1.38
9.754,1.38
9.755,1.38
9.756,1.38
9.757,1.38
9.758,1.38
9.759,1.38
9.76,1.38
9.761,1.38
9.762,1.38
9.763,1.38
9.764,1.38
9.765,1.38
9.766,1.38
9.767,1.38
9.768,1.38
9.769,1.38
9.77,1.38
9.771,1.38
9.772,1.38
9.773,1.38
9.774,1.38
9.775,1.38
9.776,1.38
9.777,1.38
9.778,1.38
9.779,1.38
9.78,1.38
9.781,1.38
9.782,1.38
9.783,1.38
9.784,1.38
9.785,1.38
9.786,1.38
9.787,1.38
9.788,1.38
9.789,1.38
9.79,1.38
9.791,1.38
9.792,1.38
9.793,1.38
9.794,1.38
9.795,1.38
9.796,1.38
9.797,1.38
9.798,1.38
9.799,1.38
9.8,1.38
9.801,1.38
9.802,1.38
9.803,1.38
9.804,1.38
9.805,1.38
9.806,1.38
9.807,1.38
9.808,1.38
9.809,1.38
9.81,1.38
9.811,1.38
9.812,1.38
9.813,1.38
9.814,1.38
9.815,1.38
9.816,1.38
9.817,1.38
9.818,1.38
9.819,1.38
9.82,1.38
9.821,1.38
9.822,1.38
9.823,1.38
9.824,1.38
9.825,1.38
9.826,1.38
9.827,1.38
9.828,1.38
9.829,1.38
9.83,1.38
9.831,1.38
9.832,1.38
9.833,1.38
9.834,1.38
9.835,1.38
9.836,1.38
9.837,1.38
9.838,1.38
9.839,1.38
9.84,1.38
9.841,1.38
9.842,1.38
9.843,1.39
9.844,1.39
9.845,1.39
9.846,1.39
9.847,1.39
9.848,1.39
9.849,1.39
9.85,1.39
9.851,1.39
9.852,1.39
9.853,1.39
9.854,1.38
9.855,1.38
9.856,1.38
9.857,1.38
9.858,1.38
9.859,1.38
9.86,1.38
9.861,1.38
9.862,1.38
9.863,1.38
9.864,1.38
9.865,1.38
9.866,1.38
9.867,1.38
9.868,1.38
9.869,1.38
9.87,1.38
9.871,1.38
9.872,1.38
9.873,1.38
9.874,1.38
9.875,1.38
9.876,1.38
9.877,1.38
9.878,1.38
9.879,1.38
9.88,1.38
9.881,1.38
9.882,1.38
9.883,1.38
9.884,1.38
9.885,1.38
9.886,1.38
9.887,1.38
9.888,1.38
9.889,1.38
9.89,1.38
9.891,1.38
9.892,1.38
9.893,1.38
9.894,1.38
9.895,1.38
9.896,1.38
9.897,1.38
9.898,1.38
9.899,1.38
9.9,1.38
9.901,1.38
9.902,1.38
9.903,1.38
9.904,1.38
9.905,1.38
9.906,1.38
9.907,1.38
9.908,1.38
9.909,1.38
9.91,1.38
9.911,1.38
9.912,1.38
9.913,1.38
9.914,1.38
9.915,1.38
9.916,1.38
9.917,1.38
9.918,1.38
9.919,1.38
9.92,1.38
9.921,1.38
9.922,1.38
9.923,1.38
9.924,1.38
9.925,1.38
9.926,1.38
9.927,1.38
9.928,1.38
9.929,1.38
9.93,1.37
9.931,1.37
9.932,1.36
9.933,1.36
9.934,1.36
9.935,1.35
9.936,1.35
9.937,1.33
9.938,1.33
9.939,1.33
9.94,1.33
9.941,1.32
9.942,1.32
9.943,1.32
9.944,1.32
9.945,1.32
9.946,1.33
9.947,1.33
9.948,1.33
9.949,1.35
9.95,1.36
9.951,1.38
9.952,1.4
9.953,1.42
9.954,1.44
9.955,1.48
9.956,1.5
9.957,1.54
9.958,1.57
9.959,1.6
9.96,1.65
9.961,1.69
9.962,1.73
9.963,1.77
9.964,1.8
9.965,1.85
9.966,1.87
9.967,1.91
9.968,1.93
9.969,1.96
9.97,1.98
9.971,1.99
9.972,2.01
9.973,2.01
9.974,2.01
9.975,1.99
9.976,1.98
9.977,1.97
9.978,1.95
9.979,1.91
9.98,1.87
9.981,1.83
9.982,1.79
9.983,1.74
9.984,1.69
9.985,1.65
9.986,1.61
9.987,1.57
9.988,1.54
9.989,1.5
9.99,1.48
9.991,1.45
9.992,1.43
9.993,1.42
9.994,1.41
9.995,1.41
9.996,1.4
9.997,1.4
9.998,1.4
9.999,1.4
10.0,1.4
10.001,1.4
10.002,1.4
10.003,1.4
10.004,1.39
10.005,1.38
10.006,1.38
10.007,1.38
10.008,1.38
10.009,1.37
10.01,1.36
10.011,1.36
10.012,1.36
10.013,1.36
10.014,1.35
10.015,1.35
10.016,1.35
10.017,1.35
10.018,1.35
10.019,1.33
10.02,1.33
10.021,1.33
10.022,1.33
10.023,1.33
10.024,1.33
10.025,1.33
10.026,1.33
10.027,1.33
10.028,1.33
10.029,1.33
10.03,1.33
10.031,1.33
10.032,1.33
10.033,1.33
10.034,1.33
10.035,1.33
10.036,1.33
10.037,1.33
10.038,1.33
10.039,1.33
10.04,1.33
10.041,1.33
10.042,1.33
10.043,1.33
10.044,1.33
10.045,1.33
10.046,1.33
10.047,1.33
10.048,1.33
10.049,1.33
10.05,1.33
10.051,1.33
10.052,1.33
10.053,1.33
10.054,1.33
10.055,1.33
10.056,1.33
10.057,1.33
10.058,1.33
10.059,1.33
10.06,1.33
10.061,1.33
10.062,1.33
10.063,1.33
10.064,1.33
10.065,1.33
10.066,1.34
10.067,1.34
10.068,1.34
10.069,1.34
10.07,1.35
10.071,1.35
10.072,1.35
10.073,1.35
10.074,1.35
10.075,1.35
10.076,1.35
10.077,1.35
10.078,1.35
10.079,1.35
10.08,1.35
10.081,1.35
10.082,1.35
10.083,1.35
10.084,1.35
10.085,1.35
10.086,1.35
10.087,1.35
10.088,1.35
10.089,1.35
10.09,1.35
10.091,1.35
10.092,1.35
10.093,1.35
10.094,1.35
10.095,1.35
10.096,1.35
10.097,1.35
10.098,1.35
10.099,1.35
10.1,1.35
10.101,1.35
10.102,1.35
10.103,1.35
10.104,1.35
10.105,1.35
10.106,1.35
10.107,1.35
10.108,1.35
10.109,1.35
10.11,1.35
10.111,1.35
10.112,1.35
10.113,1.35
10.114,1.35
10.115,1.35
10.116,1.35
10.117,1.35
10.118,1.35
10.119,1.35
10.12,1.35
10.121,1.35
10.122,1.35
10.123,1.35
10.124,1.35
10.125,1.35
10.126,1.35
10.127,1.35
10.128,1.35
10.129,1.35
10.13,1.35
10.131,1.35
10.132,1.35
10.133,1.35
10.134,1.35
10.135,1.35
10.136,1.35
10.137,1.35
10.138,1.35
10.139,1.35
10.14,1.35
10.141,1.35
10.142,1.35
10.143,1.35
10.144,1.35
10.145,1.35
10.146,1.35
10.147,1.35
10.148,1.35
10.149,1.35
10.15,1.35
10.151,1.35
10.152,1.35
10.153,1.35
10.154,1.35
10.155,1.35
10.156,1.35
10.157,1.35
10.158,1.35
10.159,1.35
10.16,1.35
10.161,1.35
10.162,1.35
10.163,1.35
10.164,1.36
10.165,1.36
10.166,1.36
10.167,1.36
10.168,1.36
10.169,1.36
10.17,1.36
10.171,1.36
10.172,1.36
10.173,1.36
10.174,1.36
10.175,1.36
10.176,1.36
10.177,1.36
10.178,1.36
10.179,1.36
10.18,1.36
10.181,1.36
10.182,1.36
10.183,1.36
10.184,1.36
10.185,1.36
10.186,1.36
10.187,1.36
10.188,1.36
10.189,1.36
10.19,1.36
10.191,1.36
10.192,1.36
10.193,1.37
10.194,1.37
10.195,1.37
10.196,1.37
10.197,1.37
10.198,1.37
10.199,1.37
10.2,1.37
10.201,1.37
10.202,1.37
10.203,1.37
10.204,1.38
10.205,1.38
10.206,1.38
10.207,1.38
10.208,1.38
10.209,1.38
10.21,1.38
10.211,1.38
10.212,1.38
10.213,1.38
10.214,1.38
10.215,1.38
10.216,1.38
10.217,1.38
10.218,1.38
10.219,1.38
10.22,1.39
10.221,1.39
10.222,1.4
10.223,1.4
10.224,1.4
10.225,1.4
10.226,1.4
10.227,1.4
10.228,1.4
10.229,1.4
10.23,1.4
10.231,1.4
10.232,1.4
10.233,1.4
10.234,1.4
10.235,1.4
10.236,1.4
10.237,1.4
10.238,1.4
10.239,1.4
10.24,1.4
10.241,1.4
10.242,1.4
10.243,1.4
10.244,1.4
10.245,1.4
10.246,1.4
10.247,1.4
10.248,1.4
10.249,1.4
10.25,1.4
10.251,1.4
10.252,1.4
10.253,1.4
10.254,1.39
10.255,1.39
10.256,1.38
10.257,1.38
10.258,1.38
10.259,1.38
10.26,1.38
10.261,1.38
10.262,1.38
10.263,1.38
10.264,1.38
10.265,1.38
10.266,1.38
10.267,1.38
10.268,1.38
10.269,1.38
10.27,1.38
10.271,1.38
10.272,1.38
10.273,1.38
10.274,1.38
10.275,1.38
10.276,1.38
10.277,1.38
10.278,1.38
10.279,1.38
10.28,1.38
10.281,1.38
10.282,1.38
10.283,1.37
10.284,1.37
10.285,1.37
10.286,1.37
10.287,1.37
10.288,1.37
10.289,1.37
10.29,1.38
10.291,1.38
10.292,1.38
10.293,1.38
10.294,1.38
10.295,1.37
10.296,1.37
10.297,1.37
10.298,1.37
10.299,1.37
10.3,1.37
10.301,1.37
10.302,1.37
10.303,1.37
10.304,1.37
10.305,1.37
10.306,1.37
10.307,1.37
10.308,1.37
10.309,1.37
10.31,1.37
10.311,1.37
10.312,1.37
10.313,1.37
10.314,1.38
10.315,1.37
10.316,1.37
10.317,1.37
10.318,1.37
10.319,1.37
10.32,1.37
10.321,1.37
10.322,1.37
10.323,1.37
10.324,1.37
10.325,1.37
10.326,1.37
10.327,1.37
10.328,1.37
10.329,1.37
10.33,1.37
10.331,1.37
10.332,1.37
10.333,1.37
10.334,1.37
10.335,1.37
10.336,1.37
10.337,1.37
10.338,1.37
10.339,1.37
10.34,1.37
10.341,1.37
10.342,1.37
10.343,1.37
10.344,1.37
10.345,1.37
10.346,1.37
10.347,1.37
10.348,1.37
10.349,1.37
10.35,1.37
10.351,1.37
10.352,1.37
10.353,1.37
10.354,1.37
10.355,1.37
10.356,1.37
10.357,1.37
10.358,1.37
10.359,1.37
10.36,1.37
10.361,1.38
10.362,1.38
10.363,1.38
10.364,1.38
10.365,1.38
10.366,1.38
10.367,1.38
10.368,1.38
10.369,1.38
10.37,1.38
10.371,1.38
10.372,1.38
10.373,1.38
10.374,1.38
10.375,1.38
10.376,1.38
10.377,1.38
10.378,1.38
10.379,1.38
10.38,1.38
10.381,1.38
10.382,1.38
10.383,1.38
10.384,1.38
10.385,1.38
10.386,1.38
10.387,1.38
10.388,1.38
10.389,1.38
10.39,1.38
10.391,1.38
10.392,1.38
10.393,1.38
10.394,1.38
10.395,1.38
10.396,1.38
10.397,1.38
10.398,1.38
10.399,1.38
10.4,1.38
10.401,1.38
10.402,1.38
10.403,1.38
10.404,1.38
10.405,1.38
10.406,1.38
10.407,1.38
10.408,1.38
10.409,1.38
10.41,1.38
10.411,1.38
10.412,1.38
10.413,1.38
10.414,1.38
10.415,1.38
10.416,1.38
10.417,1.38
10.418,1.38
10.419,1.38
10.42,1.38
10.421,1.38
10.422,1.38
10.423,1.38
10.424,1.38
10.425,1.38
10.426,1.38
10.427,1.38
10.428,1.38
10.429,1.38
10.43,1.38
10.431,1.38
10.432,1.38
10.433,1.38
10.434,1.38
10.435,1.38
10.436,1.38
10.437,1.38
10.438,1.38
10.439,1.38
10.44,1.38
10.441,1.38
10.442,1.38
10.443,1.38
10.444,1.38
10.445,1.38
10.446,1.38
10.447,1.38
10.448,1.38
10.449,1.38
10.45,1.38
10.451,1.38
10.452,1.38
10.453,1.38
10.454,1.38
10.455,1.38
10.456,1.38
10.457,1.38
10.458,1.38
10.459,1.38
10.46,1.38
10.461,1.38
10.462,1.38
10.463,1.38
10.464,1.38
10.465,1.38
10.466,1.38
10.467,1.38
10.468,1.38
10.469,1.38
10.47,1.38
10.471,1.38
10.472,1.38
10.473,1.38
10.474,1.38
10.475,1.38
10.476,1.38
10.477,1.38
10.478,1.38
10.479,1.38
10.48,1.38
10.481,1.38
10.482,1.38
10.483,1.38
10.484,1.38
10.485,1.38
10.486,1.38
10.487,1.38
10.488,1.38
10.489,1.38
10.49,1.38
10.491,1.38
10.492,1.38
10.493,1.38
10.494,1.38
10.495,1.38
10.496,1.38
10.497,1.38
10.498,1.38
10.499,1.38
10.5,1.38
10.501,1.38
10.502,1.38
10.503,1.38
10.504,1.38
10.505,1.38
10.506,1.38
10.507,1.38
10.508,1.38
10.509,1.38
10.51,1.38
10.511,1.38
10.512,1.38
10.513,1.38
10.514,1.38
10.515,1.38
10.516,1.38
10.517,1.38
10.518,1.38
10.519,1.38
10.52,1.38
10.521,1.38
10.522,1.38
10.523,1.38
10.524,1.38
10.525,1.38
10.526,1.38
10.527,1.38
10.528,1.38
10.529,1.38
10.53,1.38
10.531,1.38
10.532,1.38
10.533,1.38
10.534,1.38
10.535,1.38
10.536,1.38
10.537,1.38
10.538,1.38
10.539,1.38
10.54,1.38
10.541,1.38
10.542,1.38
10.543,1.38
10.544,1.38
10.545,1.38
10.546,1.38
10.547,1.38
10.548,1.38
10.549,1.38
10.55,1.38
10.551,1.38
10.552,1.38
10.553,1.38
10.554,1.38
10.555,1.38
10.556,1.38
10.557,1.38
10.558,1.38
10.559,1.38
10.56,1.38
10.561,1.38
10.562,1.38
10.563,1.38
10.564,1.38
10.565,1.38
10.566,1.38
10.567,1.38
10.568,1.38
10.569,1.38
10.57,1.38
10.571,1.38
10.572,1.38
10.573,1.38
10.574,1.38
10.575,1.38
10.576,1.38
10.577,1.38
10.578,1.38
10.579,1.38
10.58,1.38
10.581,1.38
10.582,1.38
10.583,1.38
10.584,1.38
10.585,1.38
10.586,1.38
10.587,1.38
10.588,1.38
10.589,1.38
10.59,1.38
10.591,1.38
10.592,1.39
10.593,1.38
10.594,1.39
10.595,1.38
10.596,1.38
10.597,1.38
10.598,1.38
10.599,1.38
10.6,1.38
10.601,1.38
10.602,1.38
10.603,1.38
10.604,1.38
10.605,1.38
10.606,1.38
10.607,1.38
10.608,1.38
10.609,1.38
10.61,1.38
10.611,1.38
10.612,1.38
10.613,1.38
10.614,1.38
10.615,1.38
10.616,1.38
10.617,1.38
10.618,1.38
10.619,1.38
10.62,1.38
10.621,1.38
10.622,1.38
10.623,1.38
10.624,1.38
10.625,1.38
10.626,1.38
10.627,1.38
10.628,1.38
10.629,1.38
10.63,1.38
10.631,1.38
10.632,1.38
10.633,1.38
10.634,1.38
10.635,1.38
10.636,1.38
10.637,1.38
10.638,1.38
10.639,1.38
10.64,1.38
10.641,1.38
10.642,1.38
10.643,1.38
10.644,1.38
10.645,1.38
10.646,1.38
10.647,1.38
10.648,1.38
10.649,1.38
10.65,1.38
10.651,1.38
10.652,1.38
10.653,1.38
10.654,1.38
10.655,1.38
10.656,1.38
10.657,1.38
10.658,1.38
10.659,1.38
10.66,1.38
10.661,1.38
10.662,1.38
10.663,1.38
10.664,1.38
10.665,1.38
10.666,1.38
10.667,1.38
10.668,1.38
10.669,1.38
10.67,1.38
10.671,1.38
10.672,1.38
10.673,1.38
10.674,1.39
10.675,1.39
10.676,1.4
10.677,1.4
10.678,1.4
10.679,1.4
10.68,1.4
10.681,1.4
10.682,1.4
10.683,1.4
10.684,1.4
10.685,1.39
10.686,1.39
10.687,1.38
10.688,1.38
10.689,1.38
10.69,1.38
10.691,1.38
10.692,1.38
10.693,1.38
10.694,1.38
10.695,1.38
10.696,1.38
10.697,1.38
10.698,1.38
10.699,1.38
10.7,1.38
10.701,1.38
10.702,1.38
10.703,1.38
10.704,1.38
10.705,1.38
10.706,1.38
10.707,1.38
10.708,1.38
10.709,1.38
10.71,1.38
10.711,1.38
10.712,1.38
10.713,1.38
10.714,1.38
10.715,1.38
10.716,1.38
10.717,1.38
10.718,1.38
10.719,1.38
10.72,1.38
10.721,1.38
10.722,1.38
10.723,1.38
10.724,1.38
10.725,1.38
10.726,1.38
10.727,1.38
10.728,1.38
10.729,1.38
10.73,1.38
10.731,1.38
10.732,1.38
10.733,1.38
10.734,1.38
10.735,1.38
10.736,1.38
10.737,1.38
10.738,1.38
10.739,1.38
10.74,1.38
10.741,1.38
10.742,1.38
10.743,1.38
10.744,1.38
10.745,1.38
10.746,1.38
10.747,1.38
10.748,1.38
10.749,1.38
10.75,1.38
10.751,1.38
10.752,1.38
10.753,1.38
10.754,1.38
10.755,1.38
10.756,1.38
10.757,1.38
10.758,1.38
10.759,1.38
10.76,1.38
10.761,1.38
10.762,1.38
10.763,1.37
10.764,1.37
10.765,1.36
10.766,1.36
10.767,1.36
10.768,1.36
10.769,1.35
10.77,1.35
10.771,1.33
10.772,1.33
10.773,1.33
10.774,1.33
10.775,1.32
10.776,1.32
10.777,1.32
10.778,1.32
10.779,1.32
10.78,1.32
10.781,1.33
10.782,1.33
10.783,1.34
10.784,1.35
10.785,1.36
10.786,1.38
10.787,1.41
10.788,1.42
10.789,1.45
10.79,1.48
10.791,1.5
10.792,1.54
10.793,1.57
10.794,1.62
10.795,1.65
10.796,1.69
10.797,1.73
10.798,1.76
10.799,1.8
10.8,1.84
10.801,1.87
10.802,1.9
10.803,1.92
10.804,1.95
10.805,1.96
10.806,1.97
10.807,1.98
10.808,1.98
10.809,1.97
10.81,1.96
10.811,1.95
10.812,1.92
10.813,1.9
10.814,1.87
10.815,1.83
10.816,1.78
10.817,1.73
10.818,1.69
10.819,1.65
10.82,1.61
10.821,1.57
10.822,1.54
10.823,1.5
10.824,1.48
10.825,1.45
10.826,1.43
10.827,1.42
10.828,1.41
10.829,1.41
10.83,1.41
10.831,1.4
10.832,1.4
10.833,1.41
10.834,1.41
10.835,1.41
10.836,1.41
10.837,1.41
10.838,1.41
10.839,1.4
10.84,1.4
10.841,1.4
10.842,1.38
10.843,1.38
10.844,1.38
10.845,1.37
10.846,1.36
10.847,1.36
10.848,1.36
10.849,1.36
10.85,1.35
10.851,1.35
10.852,1.35
10.853,1.35
10.854,1.35
10.855,1.35
10.856,1.35
10.857,1.35
10.858,1.35
10.859,1.35
10.86,1.35
10.861,1.35
10.862,1.35
10.863,1.35
10.864,1.35
10.865,1.35
10.866,1.35
10.867,1.35
10.868,1.35
10.869,1.35
10.87,1.35
10.871,1.35
10.872,1.35
10.873,1.35
10.874,1.35
10.875,1.35
10.876,1.35
10.877,1.35
10.878,1.35
10.879,1.35
10.88,1.35
10.881,1.35
10.882,1.35
10.883,1.35
10.884,1.35
10.885,1.35
10.886,1.35
10.887,1.35
10.888,1.35
10.889,1.35
10.89,1.35
10.891,1.35
10.892,1.35
10.893,1.35
10.894,1.35
10.895,1.35
10.896,1.35
10.897,1.35
10.898,1.35
10.899,1.35
10.9,1.35
10.901,1.35
10.902,1.35
10.903,1.35
10.904,1.35
10.905,1.35
10.906,1.35
10.907,1.35
10.908,1.35
10.909,1.35
10.91,1.35
10.911,1.35
10.912,1.35
10.913,1.35
10.914,1.35
10.915,1.35
10.916,1.35
10.917,1.35
10.918,1.35
10.919,1.35
10.92,1.35
10.921,1.35
10.922,1.35
10.923,1.35
10.924,1.35
10.925,1.35
10.926,1.35
10.927,1.35
10.928,1.35
10.929,1.35
10.93,1.35
10.931,1.35
10.932,1.35
10.933,1.35
10.934,1.35
10.935,1.35
10.936,1.35
10.937,1.35
10.938,1.35
10.939,1.35
10.94,1.35
10.941,1.35
10.942,1.35
10.943,1.35
10.944,1.35
10.945,1.35
10.946,1.35
10.947,1.35
10.948,1.35
10.949,1.35
10.95,1.35
10.951,1.35
10.952,1.35
10.953,1.35
10.954,1.35
10.955,1.35
10.956,1.35
10.957,1.35
10.958,1.35
10.959,1.35
10.96,1.35
10.961,1.35
10.962,1.35
10.963,1.36
10.964,1.36
10.965,1.36
10.966,1.36
10.967,1.36
10.968,1.36
10.969,1.36
10.97,1.36
10.971,1.36
10.972,1.36
10.973,1.36
10.974,1.36
10.975,1.36
10.976,1.36
10.977,1.36
10.978,1.36
10.979,1.36
10.98,1.36
10.981,1.36
10.982,1.36
10.983,1.36
10.984,1.36
10.985,1.36
10.986,1.36
10.987,1.36
10.988,1.36
10.989,1.36
10.99,1.36
10.991,1.36
10.992,1.36
10.993,1.36
10.994,1.36
